Wavelength	Transmittance	hex_color	Manufacturer	Name	Filter Number
350	94.363		Omega	745 NOTCH Notch (Rejection Band)	W5374
351	92.928				
352	92.618				
353	92.932				
354	93.91				
355	95.56				
356	95.773				
357	95.031				
358	94.137				
359	94.098				
360	94.841				
361	95.464				
362	95.714				
363	95.287				
364	94.531				
365	94.042				
366	94.059				
367	94.743				
368	95.669				
369	95.692				
370	94.994				
371	93.704				
372	92.475				
373	92.032				
374	92.721				
375	94.085				
376	95.318				
377	95.926				
378	95.306				
379	93.835				
380	92.332				
381	91.3				
382	91.249				
383	92.062				
384	93.905				
385	95.215				
386	95.872				
387	95.581				
388	94.46				
389	93.183				
390	92.269				
391	92.114				
392	92.582				
393	93.824				
394	94.916				
395	95.929				
396	95.936				
397	95.685				
398	95.125				
399	94.372				
400	93.955				
401	93.922				
402	94.306				
403	95.024				
404	95.641				
405	95.998				
406	96.02				
407	95.891				
408	95.811				
409	95.581				
410	95.433				
411	95.436				
412	95.628				
413	95.579				
414	95.642				
415	95.551				
416	95.301				
417	95.296				
418	95.032				
419	95.245				
420	95.298				
421	95.589				
422	95.933				
423	95.96				
424	95.814				
425	95.429				
426	94.918				
427	94.29				
428	93.995				
429	93.498				
430	93.601				
431	93.838				
432	94.37				
433	94.895				
434	95.52				
435	96.011				
436	96.158				
437	96.216				
438	95.975				
439	95.634				
440	95.133				
441	94.702				
442	94.379				
443	94.308				
444	94.442				
445	94.509				
446	94.791				
447	94.926				
448	95.12				
449	95.24				
450	95.394				
451	95.417				
452	95.504				
453	95.524				
454	95.66				
455	95.855				
456	96.038				
457	96.118				
458	96.052				
459	96.06				
460	95.896				
461	95.741				
462	95.464				
463	95.378				
464	95.095				
465	94.998				
466	95.09				
467	95.306				
468	95.64				
469	95.852				
470	96.096				
471	96.076				
472	96.143				
473	95.946				
474	95.776				
475	95.488				
476	95.069				
477	94.815				
478	94.548				
479	94.483				
480	94.415				
481	94.656				
482	94.857				
483	95.243				
484	95.615				
485	95.852				
486	96.015				
487	96.139				
488	96.113				
489	95.839				
490	95.508				
491	95.189				
492	94.942				
493	94.671				
494	94.473				
495	94.46				
496	94.545				
497	94.738				
498	94.961				
499	95.26				
500	95.506				
501	95.85				
502	96.076				
503	96.146				
504	96.113				
505	95.946				
506	95.734				
507	95.596				
508	95.34				
509	95.134				
510	95.029				
511	95.039				
512	95.105				
513	95.262				
514	95.476				
515	95.696				
516	95.937				
517	96.071				
518	96.26				
519	96.374				
520	96.203				
521	96.065				
522	95.929				
523	95.667				
524	95.438				
525	95.211				
526	94.995				
527	94.915				
528	94.818				
529	94.872				
530	94.93				
531	95.063				
532	95.199				
533	95.395				
534	95.595				
535	95.677				
536	95.789				
537	95.894				
538	95.845				
539	95.834				
540	95.646				
541	95.519				
542	95.424				
543	95.411				
544	95.306				
545	95.304				
546	95.098				
547	95.207				
548	95.192				
549	95.139				
550	95.227				
551	95.021				
552	95.108				
553	95.058				
554	94.919				
555	94.861				
556	94.829				
557	94.631				
558	94.547				
559	94.492				
560	94.381				
561	94.396				
562	94.379				
563	94.497				
564	94.589				
565	94.823				
566	94.996				
567	95.359				
568	95.557				
569	95.802				
570	95.985				
571	96.138				
572	96.169				
573	96.202				
574	96.314				
575	96.331				
576	96.308				
577	96.177				
578	96.145				
579	96.147				
580	96.117				
581	96.127				
582	96.08				
583	96.107				
584	96.176				
585	96.262				
586	96.349				
587	96.282				
588	96.191				
589	96.097				
590	95.952				
591	95.642				
592	95.352				
593	94.89				
594	94.509				
595	94.005				
596	93.568				
597	93.173				
598	92.789				
599	92.572				
600	92.363				
601	92.26				
602	92.27				
603	92.493				
604	92.765				
605	93.142				
606	93.672				
607	94.041				
608	94.608				
609	95.06				
610	95.547				
611	95.82				
612	95.964				
613	95.972				
614	96.079				
615	95.694				
616	95.33				
617	94.728				
618	94.278				
619	93.772				
620	93.195				
621	92.894				
622	92.494				
623	92.241				
624	92.235				
625	92.296				
626	92.46				
627	92.806				
628	93.297				
629	93.729				
630	94.265				
631	94.794				
632	95.319				
633	95.768				
634	95.97				
635	96.142				
636	96.118				
637	96.056				
638	95.977				
639	95.79				
640	95.516				
641	95.352				
642	95.056				
643	95.027				
644	95.008				
645	95.223				
646	95.485				
647	95.762				
648	96.06				
649	96.178				
650	96.312				
651	96.146				
652	95.606				
653	94.771				
654	93.714				
655	92.509				
656	91.134				
657	90.0				
658	89.11				
659	88.667				
660	88.889				
661	89.882				
662	91.531				
663	93.641				
664	95.286				
665	95.202				
666	90.968				
667	81.672				
668	67.49				
669	51.825				
670	37.468				
671	26.303				
672	18.044				
673	12.397				
674	8.675				
675	6.13				
676	4.371				
677	3.195				
678	2.362				
679	1.783				
680	1.352				
681	1.041				
682	0.818				
683	0.643				
684	0.515				
685	0.412				
686	0.332				
687	0.271				
688	0.219				
689	0.187				
690	0.154				
691	0.131				
692	0.11				
693	0.094				
694	0.08				
695	0.068				
696	0.059				
697	0.052				
698	0.044				
699	0.042				
700	0.034				
701	0.032				
702	0.03				
703	0.026				
704	0.023				
705	0.02				
706	0.018				
707	0.015				
708	0.018				
709	0.013				
710	0.011				
711	0.013				
712	0.01				
713	0.015				
714	0.008				
715	0.008				
716	0.007				
717	0.009				
718	0.003				
719	0.008				
720	0.006				
721	0.001				
722	0.009				
723	0.009				
724	0.004				
725	0.006				
726	0.003				
727	0.004				
728	0.004				
729	0.004				
730	0.002				
731	0.005				
732	0.0				
733	0.005				
734	0.004				
735	0.004				
736	0.005				
737	0.004				
738	0.0				
739	0.005				
740	0.005				
741	0.003				
742	0.006				
743	0.001				
744	0.004				
745	0.003				
746	0.004				
747	0.004				
748	0.004				
749	0.009				
750	0.0				
751	0.003				
752	0.006				
753	0.0				
754	0.002				
755	0.007				
756	0.0				
757	0.002				
758	0.0				
759	0.001				
760	0.002				
761	0.001				
762	0.003				
763	0.002				
764	0.002				
765	0.003				
766	0.005				
767	0.007				
768	0.004				
769	0.002				
770	0.002				
771	0.002				
772	0.004				
773	0.006				
774	0.004				
775	0.003				
776	0.005				
777	0.008				
778	0.008				
779	0.005				
780	0.007				
781	0.006				
782	0.009				
783	0.007				
784	0.011				
785	0.01				
786	0.011				
787	0.009				
788	0.011				
789	0.011				
790	0.014				
791	0.012				
792	0.012				
793	0.017				
794	0.015				
795	0.018				
796	0.017				
797	0.017				
798	0.013				
799	0.024				
800	0.027				
801	0.026				
802	0.031				
803	0.029				
804	0.031				
805	0.036				
806	0.042				
807	0.045				
808	0.053				
809	0.058				
810	0.065				
811	0.071				
812	0.081				
813	0.084				
814	0.1				
815	0.114				
816	0.125				
817	0.14				
818	0.159				
819	0.182				
820	0.2				
821	0.231				
822	0.264				
823	0.304				
824	0.351				
825	0.397				
826	0.465				
827	0.558				
828	0.641				
829	0.742				
830	0.881				
831	1.032				
832	1.238				
833	1.46				
834	1.75				
835	2.109				
836	2.51				
837	3.071				
838	3.738				
839	4.537				
840	5.638				
841	6.986				
842	8.686				
843	10.834				
844	13.535				
845	17.116				
846	21.424				
847	26.718				
848	33.675				
849	41.364				
850	50.533				
851	59.784				
852	69.166				
853	77.996				
854	85.25				
855	90.075				
856	93.617				
857	95.258				
858	95.277				
859	94.864				
860	94.354				
861	93.268				
862	91.584				
863	90.258				
864	89.695				
865	89.646				
866	88.701				
867	88.898				
868	88.876				
869	88.815				
870	89.68				
871	89.813				
872	89.992				
873	90.71				
874	91.796				
875	91.24				
876	91.835				
877	92.722				
878	93.069				
879	93.525				
880	93.72				
881	94.408				
882	95.984				
883	94.384				
884	95.405				
885	95.538				
886	95.74				
887	95.824				
888	95.886				
889	95.904				
890	95.996				
891	95.991				
892	96.03				
893	96.045				
894	96.049				
895	96.066				
896	96.13				
897	96.1				
898	96.205				
899	96.161				
900	96.222				
901	96.242				
902	96.26				
903	96.298				
904	96.279				
905	96.274				
906	96.228				
907	96.164				
908	96.114				
909	96.059				
910	95.979				
911	95.818				
912	95.687				
913	95.525				
914	95.33				
915	95.201				
916	95.014				
917	94.761				
918	94.566				
919	94.359				
920	94.136				
921	93.912				
922	93.726				
923	93.571				
924	93.373				
925	93.188				
926	93.085				
927	92.9				
928	92.834				
929	92.741				
930	92.68				
931	92.681				
932	92.654				
933	92.66				
934	92.701				
935	92.822				
936	92.838				
937	92.926				
938	93.11				
939	93.217				
940	93.373				
941	93.503				
942	93.704				
943	93.86				
944	94.088				
945	94.253				
946	94.482				
947	94.658				
948	94.881				
949	95.069				
950	95.196				
951	95.364				
952	95.507				
953	95.636				
954	95.728				
955	95.835				
956	95.9				
957	95.899				
958	95.916				
959	95.938				
960	95.895				
961	95.837				
962	95.754				
963	95.706				
964	95.596				
965	95.467				
966	95.351				
967	95.169				
968	95.041				
969	94.845				
970	94.705				
971	94.539				
972	94.365				
973	94.181				
974	94.046				
975	93.85				
976	93.723				
977	93.567				
978	93.419				
979	93.279				
980	93.168				
981	93.04				
982	92.996				
983	92.912				
984	92.84				
985	92.784				
986	92.758				
987	92.733				
988	92.725				
989	92.694				
990	92.769				
991	92.803				
992	92.836				
993	92.865				
994	92.923				
995	93.008				
996	93.09				
997	93.175				
998	93.323				
999	93.407				
1000	93.514				
1001	93.571				
1002	93.724				
1003	93.836				
1004	93.94				
1005	94.047				
1006	94.181				
1007	94.244				
1008	94.357				
1009	94.439				
1010	94.47				
1011	94.641				
1012	94.667				
1013	94.761				
1014	94.824				
1015	94.844				
1016	94.924				
1017	94.952				
1018	94.988				
1019	95.025				
1020	95.041				
1021	95.04				
1022	95.041				
1023	95.032				
1024	95.066				
1025	95.048				
1026	95.096				
1027	95.062				
1028	95.096				
1029	95.074				
1030	95.092				
1031	95.074				
1032	95.077				
1033	95.084				
1034	95.093				
1035	95.081				
1036	95.079				
1037	95.131				
1038	95.119				
1039	95.151				
1040	95.146				
1041	95.229				
1042	95.256				
1043	95.277				
1044	95.345				
1045	95.354				
1046	95.417				
1047	95.438				
1048	95.508				
1049	95.562				
1050	95.607				
1051	95.671				
1052	95.734				
1053	95.779				
1054	95.804				
1055	95.878				
1056	95.912				
1057	95.948				
1058	95.951				
1059	95.99				
1060	96.024				
1061	96.025				
1062	96.006				
1063	96.008				
1064	95.997				
1065	95.989				
1066	95.95				
1067	95.88				
1068	95.855				
1069	95.786				
1070	95.716				
1071	95.639				
1072	95.572				
1073	95.457				
1074	95.335				
1075	95.257				
1076	95.099				
1077	95.033				
1078	94.866				
1079	94.734				
1080	94.595				
1081	94.442				
1082	94.312				
1083	94.181				
1084	94.036				
1085	93.846				
1086	93.73				
1087	93.586				
1088	93.474				
1089	93.285				
1090	93.229				
1091	93.073				
1092	92.997				
1093	92.861				
1094	92.806				
1095	92.713				
1096	92.606				
1097	92.583				
1098	92.551				
1099	92.511				
1100	92.472				
