Wavelength	Transmittance	hex_color	Manufacturer	Name	Filter Number
478	0.037		Omega	488NB3 Bandpass	W3960
479	0.056				
480	0.088				
481	0.137				
482	0.285				
483	0.653				
484	1.677				
485	5.494				
486	22.13				
487	65.439				
488	73.359				
489	39.112				
490	9.761				
491	2.718				
492	1.069				
493	0.453				
494	0.234				
495	0.158				
496	0.103				
497	0.067				
498	0.036				
