Wavelength	Transmittance	hex_color	Manufacturer	Name	Filter Number
350	28.308		Omega	FITC/CY5 SPLITTER Dichroic	W4731
351	30.179				
352	32.082				
353	33.789				
354	34.246				
355	33.275				
356	31.025				
357	28.244				
358	25.919				
359	23.408				
360	21.228				
361	19.662				
362	18.486				
363	18.033				
364	18.097				
365	18.641				
366	19.995				
367	22.097				
368	24.874				
369	27.674				
370	31.761				
371	37.052				
372	42.913				
373	47.848				
374	50.647				
375	53.317				
376	54.068				
377	53.945				
378	53.353				
379	52.796				
380	52.646				
381	52.944				
382	54.163				
383	56.016				
384	58.683				
385	61.095				
386	64.238				
387	66.663				
388	68.186				
389	68.27				
390	67.354				
391	65.689				
392	63.812				
393	61.62				
394	59.386				
395	58.022				
396	56.834				
397	55.595				
398	54.68				
399	54.648				
400	54.739				
401	55.468				
402	56.394				
403	58.132				
404	59.916				
405	61.848				
406	63.568				
407	65.251				
408	66.735				
409	67.917				
410	68.598				
411	69.379				
412	69.932				
413	70.844				
414	71.967				
415	73.168				
416	74.136				
417	75.26				
418	75.856				
419	76.043				
420	75.235				
421	73.461				
422	71.568				
423	68.192				
424	64.513				
425	60.519				
426	57.033				
427	53.341				
428	50.349				
429	47.21				
430	44.548				
431	42.383				
432	41.162				
433	40.399				
434	40.11				
435	40.748				
436	42.236				
437	44.61				
438	47.297				
439	51.757				
440	55.553				
441	59.059				
442	60.389				
443	60.167				
444	58.518				
445	56.813				
446	54.677				
447	53.785				
448	52.992				
449	52.325				
450	50.807				
451	48.719				
452	45.327				
453	42.334				
454	38.532				
455	34.277				
456	31.183				
457	28.054				
458	26.057				
459	24.876				
460	24.928				
461	26.365				
462	28.122				
463	28.677				
464	27.894				
465	25.752				
466	23.037				
467	20.345				
468	17.406				
469	16.186				
470	16.214				
471	16.857				
472	18.484				
473	20.631				
474	24.181				
475	28.344				
476	31.334				
477	34.205				
478	34.648				
479	31.732				
480	27.362				
481	21.156				
482	15.797				
483	11.893				
484	8.436				
485	6.399				
486	4.789				
487	3.571				
488	2.922				
489	2.354				
490	1.913				
491	1.517				
492	1.299				
493	1.147				
494	1.002				
495	0.836				
496	0.734				
497	0.623				
498	0.55				
499	0.524				
500	0.468				
501	0.396				
502	0.342				
503	0.323				
504	0.294				
505	0.239				
506	0.31				
507	0.223				
508	0.252				
509	0.28				
510	0.251				
511	0.248				
512	0.14				
513	0.145				
514	0.173				
515	0.194				
516	0.173				
517	0.152				
518	0.163				
519	0.169				
520	0.144				
521	0.143				
522	0.133				
523	0.143				
524	0.12				
525	0.145				
526	0.101				
527	0.149				
528	0.111				
529	0.111				
530	0.12				
531	0.112				
532	0.137				
533	0.128				
534	0.127				
535	0.133				
536	0.077				
537	0.096				
538	0.137				
539	0.103				
540	0.146				
541	0.113				
542	0.099				
543	0.085				
544	0.125				
545	0.171				
546	0.133				
547	0.187				
548	0.18				
549	0.147				
550	0.142				
551	0.16				
552	0.187				
553	0.11				
554	0.199				
555	0.184				
556	0.176				
557	0.226				
558	0.194				
559	0.094				
560	0.265				
561	0.15				
562	0.208				
563	0.286				
564	0.211				
565	0.201				
566	0.196				
567	0.298				
568	0.327				
569	0.315				
570	0.327				
571	0.326				
572	0.394				
573	0.375				
574	0.446				
575	0.331				
576	0.476				
577	0.52				
578	0.472				
579	0.523				
580	0.536				
581	0.663				
582	0.706				
583	0.763				
584	0.92				
585	0.794				
586	0.951				
587	1.154				
588	1.173				
589	1.196				
590	1.41				
591	1.378				
592	1.541				
593	1.748				
594	1.905				
595	2.102				
596	2.369				
597	2.595				
598	2.888				
599	3.214				
600	3.486				
601	3.98				
602	4.354				
603	4.912				
604	5.421				
605	6.202				
606	6.9				
607	7.596				
608	8.574				
609	9.902				
610	11.013				
611	12.238				
612	13.841				
613	15.321				
614	17.235				
615	18.909				
616	20.772				
617	22.988				
618	25.345				
619	28.113				
620	30.602				
621	32.3				
622	34.879				
623	37.213				
624	39.406				
625	41.707				
626	43.321				
627	45.196				
628	46.619				
629	47.859				
630	49.126				
631	50.194				
632	51.018				
633	51.702				
634	52.492				
635	53.108				
636	53.74				
637	54.117				
638	54.645				
639	55.414				
640	56.471				
641	57.499				
642	58.683				
643	59.767				
644	61.214				
645	63.287				
646	65.719				
647	67.845				
648	70.412				
649	72.575				
650	75.233				
651	77.934				
652	80.706				
653	83.537				
654	85.838				
655	88.057				
656	89.857				
657	91.476				
658	92.693				
659	94.193				
660	95.178				
661	95.598				
662	96.128				
663	96.45				
664	96.78				
665	96.734				
666	96.816				
667	97.165				
668	97.158				
669	97.029				
670	97.302				
671	97.185				
672	97.015				
673	97.52				
674	97.312				
675	97.381				
676	97.324				
677	97.217				
678	97.417				
679	97.456				
680	97.594				
681	97.773				
682	97.736				
683	97.491				
684	97.767				
685	97.668				
686	97.469				
687	97.423				
688	97.47				
689	97.587				
690	97.527				
691	97.33				
692	97.318				
693	97.52				
694	97.31				
695	97.192				
696	97.162				
697	97.069				
698	97.209				
699	97.181				
700	97.181				
701	97.109				
702	97.053				
703	97.086				
704	97.023				
705	96.986				
706	96.773				
707	96.882				
708	96.911				
709	97.032				
710	96.779				
711	97.086				
712	97.035				
713	97.167				
714	97.03				
715	96.971				
716	97.044				
717	97.071				
718	97.028				
719	97.255				
720	97.154				
721	97.133				
722	97.089				
723	97.446				
724	97.36				
725	97.283				
726	97.324				
727	96.996				
728	97.376				
729	97.452				
730	97.372				
731	97.315				
732	97.272				
733	97.36				
734	97.016				
735	97.42				
736	97.168				
737	97.415				
738	97.363				
739	97.446				
740	97.483				
741	97.216				
742	97.024				
743	97.023				
744	96.966				
745	96.979				
746	96.965				
747	96.83				
748	96.772				
749	96.76				
750	96.911				
751	96.762				
752	96.933				
753	96.384				
754	96.773				
755	96.744				
756	96.749				
757	96.554				
758	96.393				
759	96.638				
760	96.55				
761	96.435				
762	96.26				
763	96.264				
764	96.383				
765	95.944				
766	95.818				
767	96.297				
768	95.554				
769	95.924				
770	95.996				
771	96.122				
772	96.116				
773	96.004				
774	96.295				
775	96.101				
776	95.605				
777	95.896				
778	95.661				
779	95.508				
780	95.48				
781	95.848				
782	95.975				
783	95.611				
784	95.661				
785	95.313				
786	95.996				
787	96.431				
788	95.259				
789	95.466				
790	95.704				
791	95.865				
792	95.448				
793	95.35				
794	95.81				
795	95.516				
796	95.421				
797	95.724				
798	95.441				
799	95.4				
800	95.606				
