Wavelength	Transmittance	hex_color	Manufacturer	Name	Filter Number
300	0.0		Omega	505DRLP Dichroic	W4676
301	0.0				
302	0.0				
303	0.0				
304	0.0				
305	0.0				
306	0.0				
307	0.0				
308	0.0				
309	0.0				
310	0.0				
311	0.0				
312	0.0				
313	0.0				
314	0.0				
315	0.0				
316	0.0				
317	0.0				
318	0.0				
319	0.0				
320	0.0				
321	0.0				
322	0.0				
323	0.0				
324	0.0				
325	0.0				
326	0.0				
327	0.0				
328	0.0				
329	0.06				
330	0.0				
331	0.0				
332	0.016				
333	0.0				
334	0.086				
335	0.134				
336	0.0				
337	0.249				
338	0.0				
339	0.389				
340	0.0				
341	0.008				
342	0.0				
343	0.0				
344	0.0				
345	0.077				
346	0.0				
347	0.078				
348	0.0				
349	0.266				
350	0.0				
351	0.147				
352	0.073				
353	0.137				
354	0.038				
355	0.532				
356	1.105				
357	2.155				
358	3.967				
359	6.062				
360	11.652				
361	16.358				
362	24.298				
363	27.555				
364	30.964				
365	32.35				
366	33.638				
367	36.443				
368	39.416				
369	43.738				
370	48.334				
371	53.57				
372	57.448				
373	59.321				
374	59.829				
375	59.518				
376	60.179				
377	61.463				
378	64.446				
379	67.449				
380	72.056				
381	75.054				
382	75.857				
383	75.092				
384	72.977				
385	71.665				
386	69.068				
387	69.206				
388	70.758				
389	73.429				
390	76.922				
391	81.955				
392	85.196				
393	86.584				
394	84.809				
395	80.6				
396	76.834				
397	71.732				
398	69.011				
399	67.042				
400	67.636				
401	69.284				
402	72.714				
403	78.352				
404	85.553				
405	89.652				
406	91.044				
407	88.853				
408	85.487				
409	79.339				
410	74.996				
411	70.865				
412	68.757				
413	66.24				
414	66.015				
415	67.535				
416	70.061				
417	74.14				
418	77.893				
419	80.588				
420	79.725				
421	76.081				
422	72.602				
423	66.87				
424	62.658				
425	58.149				
426	57.173				
427	56.862				
428	58.237				
429	60.755				
430	60.89				
431	57.554				
432	52.998				
433	49.144				
434	47.01				
435	45.418				
436	41.694				
437	35.738				
438	30.691				
439	22.866				
440	16.634				
441	11.583				
442	7.794				
443	6.182				
444	4.603				
445	3.398				
446	2.737				
447	2.066				
448	1.713				
449	1.424				
450	1.272				
451	0.915				
452	0.923				
453	0.595				
454	0.715				
455	0.609				
456	0.586				
457	0.499				
458	0.499				
459	0.364				
460	0.43				
461	0.349				
462	0.317				
463	0.249				
464	0.411				
465	0.318				
466	0.325				
467	0.252				
468	0.437				
469	0.371				
470	0.469				
471	0.395				
472	0.404				
473	0.511				
474	0.613				
475	0.492				
476	0.78				
477	0.809				
478	0.8				
479	0.839				
480	1.001				
481	1.127				
482	1.418				
483	1.43				
484	1.746				
485	2.108				
486	2.441				
487	2.79				
488	3.434				
489	4.235				
490	4.799				
491	6.255				
492	7.353				
493	8.859				
494	10.887				
495	13.507				
496	16.441				
497	20.548				
498	24.993				
499	30.332				
500	34.751				
501	40.489				
502	46.443				
503	51.462				
504	55.661				
505	58.864				
506	62.56				
507	66.496				
508	71.672				
509	76.458				
510	80.852				
511	85.358				
512	89.149				
513	92.509				
514	94.877				
515	95.966				
516	96.658				
517	96.663				
518	97.143				
519	97.291				
520	97.66				
521	97.582				
522	98.128				
523	98.443				
524	98.738				
525	98.808				
526	98.764				
527	98.733				
528	98.759				
529	98.793				
530	98.687				
531	98.494				
532	98.5				
533	98.431				
534	98.264				
535	97.89				
536	98.143				
537	97.984				
538	97.992				
539	98.331				
540	98.214				
541	98.502				
542	98.584				
543	98.798				
544	99.102				
545	99.22				
546	99.156				
547	99.2				
548	99.399				
549	99.647				
550	99.291				
551	99.31				
552	99.149				
553	99.454				
554	99.103				
555	98.68				
556	98.394				
557	98.405				
558	98.049				
559	98.119				
560	97.843				
561	98.053				
562	97.79				
563	97.952				
564	97.76				
565	97.782				
566	97.822				
567	97.943				
568	97.869				
569	98.426				
570	98.294				
571	98.614				
572	98.541				
573	98.715				
574	98.777				
575	99.12				
576	98.988				
577	98.918				
578	99.273				
579	99.204				
580	99.183				
581	99.086				
582	99.131				
583	99.22				
584	99.077				
585	98.605				
586	98.716				
587	98.202				
588	98.802				
589	98.073				
590	98.066				
591	98.155				
592	97.797				
593	97.95				
594	97.86				
595	97.855				
596	97.571				
597	97.533				
598	97.738				
599	97.826				
600	97.632				
601	97.966				
602	97.544				
603	98.118				
604	98.322				
605	98.471				
606	98.202				
607	98.487				
608	98.278				
609	98.698				
610	98.657				
611	98.974				
612	98.744				
613	99.225				
614	98.733				
615	98.763				
616	98.564				
617	98.795				
618	98.886				
619	98.595				
620	98.391				
621	98.141				
622	98.054				
623	98.38				
624	98.451				
625	98.392				
626	97.711				
627	97.761				
628	97.544				
629	97.606				
630	98.147				
631	97.536				
632	97.668				
633	97.736				
634	97.614				
635	97.612				
636	97.281				
637	97.534				
638	97.654				
639	97.636				
640	97.652				
641	97.649				
642	98.13				
643	98.482				
644	98.348				
645	98.297				
646	98.55				
647	98.244				
648	98.376				
649	98.647				
650	98.554				
651	99.036				
652	98.274				
653	98.925				
654	99.038				
655	98.966				
656	98.898				
657	98.996				
658	98.264				
659	98.849				
660	98.629				
661	98.36				
662	97.746				
663	98.646				
664	98.099				
665	98.588				
666	97.884				
667	97.914				
668	97.691				
669	98.076				
670	97.422				
671	98.213				
672	97.469				
673	97.448				
674	97.01				
675	97.7				
676	97.21				
677	97.466				
678	97.45				
679	97.373				
680	96.91				
681	97.693				
682	98.169				
683	97.706				
684	97.552				
685	98.016				
686	98.284				
687	98.136				
688	98.055				
689	98.757				
690	98.976				
691	98.642				
692	98.808				
693	98.931				
694	98.536				
695	98.574				
696	98.647				
697	98.482				
698	98.389				
699	97.595				
700	97.604				
701	97.294				
702	97.118				
703	96.715				
704	96.686				
705	96.002				
706	95.486				
707	94.965				
708	94.594				
709	93.862				
710	93.662				
711	92.802				
712	91.646				
713	91.308				
714	91.104				
715	90.592				
716	89.813				
717	89.432				
718	88.715				
719	87.83				
720	87.704				
721	87.251				
722	86.449				
723	86.405				
724	85.942				
725	85.622				
726	85.637				
727	85.158				
728	85.375				
729	85.079				
730	85.05				
731	84.658				
732	84.826				
733	84.746				
734	85.166				
735	84.898				
736	85.182				
737	85.523				
738	86.365				
739	85.92				
740	86.82				
741	87.098				
742	88.611				
743	88.498				
744	89.186				
745	89.414				
746	90.783				
747	91.418				
748	92.494				
749	92.757				
750	94.135				
751	94.26				
752	95.018				
753	95.473				
754	96.836				
755	96.142				
756	96.844				
757	96.886				
758	97.408				
759	97.178				
760	96.858				
761	95.79				
762	96.012				
763	94.341				
764	92.981				
765	91.794				
766	91.205				
767	88.672				
768	87.854				
769	86.329				
770	84.362				
771	82.794				
772	80.201				
773	77.811				
774	76.472				
775	74.723				
776	73.989				
777	70.984				
778	69.928				
779	67.697				
780	66.551				
781	63.583				
782	61.88				
783	60.607				
784	58.259				
785	56.868				
786	55.762				
787	53.456				
788	54.158				
789	50.288				
790	49.402				
791	47.733				
792	44.805				
793	44.294				
794	44.068				
795	41.586				
796	41.108				
797	39.051				
798	38.376				
799	36.139				
800	36.108				
801	34.339				
802	33.929				
803	32.252				
804	32.728				
805	29.547				
806	30.114				
807	28.782				
808	27.846				
809	27.043				
810	26.192				
811	24.833				
812	24.87				
813	22.902				
814	22.932				
815	21.775				
816	21.845				
817	20.504				
818	19.927				
819	19.908				
820	19.226				
821	17.898				
822	18.097				
823	17.264				
824	16.894				
825	16.33				
826	16.295				
827	15.557				
828	14.891				
829	14.295				
830	14.754				
831	14.207				
832	13.509				
833	13.793				
834	12.823				
835	12.644				
836	12.738				
837	11.77				
838	11.475				
839	11.986				
840	11.57				
841	11.438				
842	11.446				
843	10.426				
844	10.039				
845	9.691				
846	10.756				
847	9.137				
848	9.586				
849	8.269				
850	9.517				
