Wavelength	Transmittance	hex_color	Manufacturer	Name	Filter Number
300	0.0		Omega	528-633DBEM Dual Band	XF3057/22
301	0.003				
302	0.0				
303	0.0				
304	0.0				
305	0.0				
306	0.002				
307	0.0				
308	0.0				
309	0.0				
310	0.002				
311	0.006				
312	0.001				
313	0.005				
314	0.002				
315	0.0				
316	0.004				
317	0.0				
318	0.0				
319	0.001				
320	0.0				
321	0.0				
322	0.003				
323	0.0				
324	0.0				
325	0.0				
326	0.003				
327	0.0				
328	0.002				
329	0.001				
330	0.0				
331	0.0				
332	0.001				
333	0.0				
334	0.0				
335	0.0				
336	0.0				
337	0.002				
338	0.0				
339	0.003				
340	0.002				
341	0.0				
342	0.0				
343	0.0				
344	0.006				
345	0.001				
346	0.0				
347	0.0				
348	0.001				
349	0.0				
350	0.004				
351	0.0				
352	0.0				
353	0.0				
354	0.002				
355	0.0				
356	0.0				
357	0.002				
358	0.0				
359	0.0				
360	0.0				
361	0.0				
362	0.0				
363	0.0				
364	0.002				
365	0.001				
366	0.0				
367	0.0				
368	0.0				
369	0.001				
370	0.002				
371	0.0				
372	0.0				
373	0.003				
374	0.0				
375	0.0				
376	0.0				
377	0.0				
378	0.0				
379	0.0				
380	0.001				
381	0.001				
382	0.0				
383	0.0				
384	0.0				
385	0.0				
386	0.0				
387	0.0				
388	0.0				
389	0.0				
390	0.0				
391	0.001				
392	0.001				
393	0.003				
394	0.003				
395	0.0				
396	0.002				
397	0.0				
398	0.0				
399	0.001				
400	0.003				
401	0.002				
402	0.002				
403	0.0				
404	0.0				
405	0.0				
406	0.0				
407	0.0				
408	0.0				
409	0.0				
410	0.002				
411	0.001				
412	0.001				
413	0.002				
414	0.0				
415	0.003				
416	0.002				
417	0.0				
418	0.0				
419	0.0				
420	0.0				
421	0.0				
422	0.005				
423	0.0				
424	0.0				
425	0.002				
426	0.003				
427	0.0				
428	0.0				
429	0.0				
430	0.0				
431	0.001				
432	0.0				
433	0.0				
434	0.0				
435	0.004				
436	0.0				
437	0.001				
438	0.0				
439	0.0				
440	0.0				
441	0.006				
442	0.0				
443	0.002				
444	0.005				
445	0.0				
446	0.0				
447	0.0				
448	0.0				
449	0.005				
450	0.0				
451	0.0				
452	0.0				
453	0.001				
454	0.0				
455	0.0				
456	0.0				
457	0.003				
458	0.0				
459	0.001				
460	0.0				
461	0.0				
462	0.0				
463	0.0				
464	0.0				
465	0.0				
466	0.002				
467	0.001				
468	0.0				
469	0.0				
470	0.0				
471	0.0				
472	0.0				
473	0.0				
474	0.0				
475	0.0				
476	0.0				
477	0.0				
478	0.001				
479	0.0				
480	0.0				
481	0.001				
482	0.0				
483	0.0				
484	0.001				
485	0.001				
486	0.001				
487	0.0				
488	0.0				
489	0.0				
490	0.0				
491	0.0				
492	0.0				
493	0.0				
494	0.0				
495	0.0				
496	0.0				
497	0.0				
498	0.0				
499	0.0				
500	0.0				
501	0.001				
502	0.001				
503	0.0				
504	0.0				
505	0.0				
506	0.001				
507	0.024				
508	0.186				
509	2.299				
510	23.332				
511	54.058				
512	62.465				
513	73.309				
514	77.044				
515	78.688				
516	82.112				
517	86.094				
518	88.214				
519	86.634				
520	81.267				
521	73.925				
522	67.669				
523	64.433				
524	64.835				
525	68.813				
526	75.588				
527	82.759				
528	85.799				
529	80.944				
530	70.856				
531	62.393				
532	60.689				
533	68.824				
534	82.366				
535	78.731				
536	52.268				
537	30.697				
538	22.032				
539	22.021				
540	31.057				
541	44.307				
542	36.396				
543	22.514				
544	28.069				
545	25.663				
546	4.257				
547	0.403				
548	0.087				
549	0.021				
550	0.012				
551	0.003				
552	0.002				
553	0.003				
554	0.0				
555	0.0				
556	0.0				
557	0.0				
558	0.004				
559	0.0				
560	0.003				
561	0.0				
562	0.0				
563	0.0				
564	0.0				
565	0.005				
566	0.0				
567	0.0				
568	0.003				
569	0.0				
570	0.003				
571	0.001				
572	0.002				
573	0.0				
574	0.002				
575	0.005				
576	0.0				
577	0.003				
578	0.001				
579	0.0				
580	0.002				
581	0.0				
582	0.0				
583	0.0				
584	0.0				
585	0.001				
586	0.0				
587	0.0				
588	0.003				
589	0.003				
590	0.004				
591	0.003				
592	0.0				
593	0.002				
594	0.0				
595	0.003				
596	0.002				
597	0.007				
598	0.007				
599	0.024				
600	0.055				
601	0.166				
602	0.6				
603	3.044				
604	18.598				
605	55.631				
606	56.204				
607	45.023				
608	54.392				
609	74.159				
610	84.66				
611	76.625				
612	64.999				
613	59.726				
614	60.968				
615	67.208				
616	76.276				
617	84.591				
618	89.318				
619	89.546				
620	87.336				
621	85.043				
622	83.617				
623	83.639				
624	84.611				
625	85.904				
626	87.213				
627	88.152				
628	88.719				
629	89.037				
630	89.232				
631	89.27				
632	89.266				
633	89.274				
634	89.133				
635	88.91				
636	88.643				
637	88.377				
638	88.151				
639	88.055				
640	88.12				
641	88.376				
642	88.457				
643	88.254				
644	87.419				
645	85.797				
646	83.406				
647	80.915				
648	78.82				
649	77.853				
650	78.256				
651	80.446				
652	83.851				
653	87.405				
654	89.135				
655	87.252				
656	82.027				
657	75.24				
658	69.641				
659	67.179				
660	68.677				
661	74.29				
662	81.102				
663	81.177				
664	68.859				
665	50.105				
666	35.55				
667	28.096				
668	27.821				
669	38.133				
670	55.816				
671	40.848				
672	11.501				
673	2.569				
674	0.804				
675	0.313				
676	0.141				
677	0.071				
678	0.033				
679	0.022				
680	0.011				
681	0.008				
682	0.001				
683	0.004				
684	0.004				
685	0.0				
686	0.0				
687	0.0				
688	0.0				
689	0.001				
690	0.0				
691	0.0				
692	0.0				
693	0.001				
694	0.001				
695	0.0				
696	0.001				
697	0.006				
698	0.0				
699	0.002				
700	0.002				
701	0.0				
702	0.002				
703	0.0				
704	0.0				
705	0.002				
706	0.001				
707	0.0				
708	0.0				
709	0.0				
710	0.0				
711	0.0				
712	0.0				
713	0.0				
714	0.0				
715	0.001				
716	0.002				
717	0.0				
718	0.002				
719	0.0				
720	0.0				
721	0.001				
722	0.0				
723	0.0				
724	0.0				
725	0.0				
726	0.0				
727	0.0				
728	0.001				
729	0.003				
730	0.0				
731	0.0				
732	0.0				
733	0.002				
734	0.003				
735	0.0				
736	0.001				
737	0.002				
738	0.003				
739	0.001				
740	0.007				
741	0.01				
742	0.014				
743	0.022				
744	0.036				
745	0.059				
746	0.107				
747	0.197				
748	0.387				
749	0.85				
750	2.171				
751	6.732				
752	23.06				
753	54.577				
754	60.78				
755	42.648				
756	33.498				
757	32.716				
758	37.42				
759	46.583				
760	58.374				
761	68.119				
762	70.207				
763	65.152				
764	57.846				
765	51.951				
766	48.543				
767	47.815				
768	49.357				
769	53.03				
770	59.02				
771	66.051				
772	73.963				
773	80.407				
774	83.944				
775	84.229				
776	81.888				
777	77.984				
778	74.485				
779	71.398				
780	70.038				
781	69.695				
782	70.648				
783	72.923				
784	75.643				
785	79.054				
786	82.197				
787	84.736				
788	86.537				
789	87.081				
790	86.65				
791	85.551				
792	83.854				
793	82.218				
794	80.672				
795	79.654				
796	78.741				
797	78.176				
798	78.084				
799	77.811				
800	77.992				
801	77.768				
802	77.349				
803	77.286				
804	76.628				
805	75.945				
806	75.723				
807	74.848				
808	74.636				
809	74.652				
810	74.242				
811	74.975				
812	75.125				
813	75.74				
814	76.988				
815	77.436				
816	78.453				
817	79.472				
818	80.132				
819	81.022				
820	81.626				
821	82.078				
822	82.796				
823	83.27				
824	83.95				
825	84.219				
826	84.45				
827	84.43				
828	84.385				
829	84.092				
830	83.086				
831	81.357				
832	79.316				
833	76.249				
834	72.483				
835	69.42				
836	65.324				
837	61.672				
838	59.444				
839	56.714				
840	55.8				
841	56.294				
842	56.941				
843	60.039				
844	64.218				
845	68.19				
846	72.388				
847	72.465				
848	68.666				
849	60.408				
850	51.663				
