Wavelength	Transmittance	hex_color	Manufacturer	Name	Filter Number
450	8.283		Omega	750GSP Shortpass	W5398
451	11.365				
452	23.213				
453	54.162				
454	55.518				
455	26.196				
456	15.708				
457	14.936				
458	22.126				
459	44.869				
460	52.971				
461	24.551				
462	10.756				
463	6.831				
464	5.938				
465	6.794				
466	10.509				
467	23.216				
468	57.159				
469	59.493				
470	26.872				
471	14.611				
472	11.3				
473	11.384				
474	14.482				
475	22.563				
476	40.668				
477	66.631				
478	74.237				
479	59.942				
480	48.335				
481	44.695				
482	47.358				
483	54.651				
484	64.251				
485	73.153				
486	78.524				
487	80.309				
488	79.98				
489	78.065				
490	74.936				
491	71.282				
492	68.047				
493	66.533				
494	67.005				
495	69.634				
496	73.85				
497	78.503				
498	82.493				
499	85.094				
500	86.477				
501	87.224				
502	87.886				
503	88.358				
504	88.704				
505	88.54				
506	88.192				
507	87.86				
508	87.828				
509	88.137				
510	88.656				
511	88.887				
512	88.781				
513	88.457				
514	88.02				
515	87.924				
516	88.067				
517	88.66				
518	88.867				
519	88.821				
520	88.478				
521	87.822				
522	87.276				
523	87.067				
524	87.066				
525	87.298				
526	87.444				
527	87.222				
528	86.824				
529	86.355				
530	86.158				
531	86.213				
532	86.572				
533	86.668				
534	86.324				
535	85.428				
536	83.988				
537	82.645				
538	81.79				
539	81.862				
540	83.06				
541	84.939				
542	86.897				
543	88.177				
544	88.24				
545	86.948				
546	84.952				
547	82.991				
548	81.936				
549	81.972				
550	83.269				
551	85.356				
552	87.532				
553	88.954				
554	88.984				
555	87.878				
556	85.888				
557	84.264				
558	83.226				
559	83.429				
560	84.712				
561	86.502				
562	88.212				
563	89.068				
564	88.581				
565	87.115				
566	85.298				
567	83.67				
568	82.967				
569	83.552				
570	85.006				
571	86.952				
572	88.563				
573	88.849				
574	87.559				
575	84.698				
576	81.04				
577	77.866				
578	75.634				
579	74.876				
580	75.796				
581	78.033				
582	81.318				
583	84.844				
584	87.653				
585	88.831				
586	88.302				
587	86.325				
588	83.869				
589	81.727				
590	80.514				
591	80.531				
592	81.58				
593	83.469				
594	85.456				
595	86.881				
596	87.218				
597	86.296				
598	84.356				
599	82.002				
600	80.065				
601	78.802				
602	78.731				
603	79.613				
604	81.433				
605	83.795				
606	86.025				
607	87.49				
608	87.788				
609	86.933				
610	85.054				
611	82.933				
612	80.988				
613	79.883				
614	79.528				
615	80.184				
616	81.622				
617	83.569				
618	85.704				
619	87.315				
620	88.221				
621	88.24				
622	87.567				
623	86.339				
624	85.177				
625	84.214				
626	83.849				
627	84.023				
628	84.714				
629	85.709				
630	86.793				
631	87.699				
632	88.066				
633	88.069				
634	87.457				
635	86.696				
636	85.831				
637	85.271				
638	84.878				
639	84.939				
640	85.333				
641	85.863				
642	86.611				
643	87.004				
644	87.332				
645	87.072				
646	86.79				
647	86.175				
648	85.567				
649	85.234				
650	85.055				
651	85.199				
652	85.52				
653	86.152				
654	86.626				
655	87.032				
656	87.047				
657	86.743				
658	86.118				
659	85.316				
660	84.49				
661	83.685				
662	83.203				
663	83.067				
664	83.291				
665	83.934				
666	84.838				
667	85.662				
668	86.483				
669	87.081				
670	87.182				
671	87.044				
672	86.336				
673	85.599				
674	84.706				
675	84.037				
676	83.324				
677	83.215				
678	83.135				
679	83.451				
680	83.958				
681	84.631				
682	85.363				
683	86.048				
684	86.527				
685	86.743				
686	86.989				
687	86.952				
688	86.927				
689	86.927				
690	86.754				
691	86.819				
692	86.791				
693	86.793				
694	86.691				
695	86.731				
696	86.579				
697	86.383				
698	86.104				
699	85.931				
700	85.8				
701	85.548				
702	85.437				
703	85.585				
704	85.511				
705	85.572				
706	85.676				
707	85.656				
708	85.498				
709	85.358				
710	85.354				
711	85.248				
712	85.086				
713	85.181				
714	85.26				
715	85.48				
716	85.406				
717	85.483				
718	85.242				
719	84.85				
720	84.122				
721	83.213				
722	82.293				
723	81.396				
724	80.721				
725	80.294				
726	80.33				
727	80.836				
728	81.692				
729	82.765				
730	83.849				
731	84.621				
732	84.947				
733	84.486				
734	83.341				
735	81.7				
736	79.936				
737	78.451				
738	77.544				
739	77.467				
740	77.884				
741	78.067				
742	77.642				
743	74.467				
744	65.545				
745	47.972				
746	27.422				
747	12.215				
748	4.83				
749	1.905				
750	0.782				
751	0.337				
752	0.153				
753	0.072				
754	0.037				
755	0.014				
756	0.008				
757	0.004				
758	0.004				
759	0.0				
760	0.002				
761	0.0				
762	0.0				
763	0.0				
764	0.001				
765	0.002				
766	0.0				
767	0.005				
768	0.0				
769	0.0				
770	0.0				
771	0.0				
772	0.001				
773	0.001				
774	0.0				
775	0.001				
776	0.002				
777	0.0				
778	0.0				
779	0.004				
780	0.001				
781	0.0				
782	0.001				
783	0.002				
784	0.001				
785	0.002				
786	0.002				
787	0.0				
788	0.0				
789	0.0				
790	0.0				
791	0.001				
792	0.001				
793	0.0				
794	0.0				
795	0.002				
796	0.0				
797	0.0				
798	0.002				
799	0.007				
800	0.0				
801	0.001				
802	0.0				
803	0.0				
804	0.0				
805	0.0				
806	0.002				
807	0.0				
808	0.0				
809	0.0				
810	0.003				
811	0.0				
812	0.0				
813	0.0				
814	0.003				
815	0.001				
816	0.002				
817	0.0				
818	0.0				
819	0.002				
820	0.001				
821	0.002				
822	0.0				
823	0.0				
824	0.0				
825	0.0				
826	0.002				
827	0.0				
828	0.0				
829	0.0				
830	0.001				
831	0.0				
832	0.001				
833	0.0				
834	0.003				
835	0.001				
836	0.001				
837	0.001				
838	0.002				
839	0.0				
840	0.001				
841	0.0				
842	0.0				
843	0.0				
844	0.001				
845	0.0				
846	0.001				
847	0.0				
848	0.001				
849	0.0				
850	0.001				
851	0.001				
852	0.001				
853	0.001				
854	0.003				
855	0.0				
856	0.003				
857	0.002				
858	0.003				
859	0.001				
860	0.0				
861	0.0				
862	0.003				
863	0.001				
864	0.004				
865	0.005				
866	0.002				
867	0.0				
868	0.006				
869	0.006				
870	0.005				
871	0.0				
872	0.002				
873	0.015				
874	0.002				
875	0.0				
876	0.001				
877	0.009				
878	0.012				
879	0.011				
880	0.014				
881	0.007				
882	0.0				
883	0.011				
884	0.0				
885	0.0				
886	0.0				
887	0.0				
888	0.0				
889	0.0				
890	0.0				
891	0.0				
892	0.0				
893	0.0				
894	0.0				
895	0.0				
896	0.0				
897	0.0				
898	0.0				
899	0.0				
900	0.0				
901	0.0				
902	0.0				
903	0.0				
904	0.0				
905	0.0				
906	0.0				
907	0.0				
908	0.0				
909	0.0				
910	0.0				
911	0.0				
912	0.0				
913	0.0				
914	0.0				
915	0.0				
916	0.0				
917	0.0				
918	0.0				
919	0.0				
920	0.0				
921	0.0				
922	0.0				
923	0.0				
924	0.0				
925	0.0				
926	0.0				
927	0.0				
928	0.0				
929	0.0				
930	0.0				
931	0.0				
932	0.0				
933	0.0				
934	0.0				
935	0.0				
936	0.0				
937	0.0				
938	0.0				
939	0.0				
940	0.0				
941	0.0				
942	0.0				
943	0.0				
944	0.0				
945	0.0				
946	0.0				
947	0.0				
948	0.0				
949	0.0				
950	0.0				
951	0.0				
952	0.0				
953	0.0				
954	0.0				
955	0.0				
956	0.0				
957	0.0				
958	0.0				
959	0.0				
960	0.0				
961	0.0				
962	0.0				
963	0.0				
964	0.0				
965	0.0				
966	0.0				
967	0.0				
968	0.0				
969	0.0				
970	0.0				
971	0.0				
972	0.0				
973	0.0				
974	0.0				
975	0.0				
976	0.0				
977	0.0				
978	0.0				
979	0.0				
980	0.0				
981	0.0				
982	0.0				
983	0.0				
984	0.0				
985	0.0				
986	0.0				
987	0.0				
988	0.0				
989	0.0				
990	0.0				
991	0.0				
992	0.0				
993	0.0				
994	0.0				
995	0.0				
996	0.0				
997	0.0				
998	0.0				
999	0.0				
1000	0.0				
