Wavelength	Transmittance	hex_color	Manufacturer	Name	Filter Number
590	0.0		Omega	617BP10 Bandpass	W4768
591	0.0				
592	0.0				
593	0.0				
594	0.0				
595	0.0				
596	0.0				
597	0.0				
598	0.0				
599	0.0				
600	0.0				
601	0.0				
602	0.0				
603	0.001				
604	0.006				
605	0.013				
606	0.023				
607	0.043				
608	0.09				
609	0.22				
610	0.734				
611	3.36				
612	15.37				
613	42.816				
614	69.536				
615	80.603				
616	82.746				
617	83.031				
618	82.905				
619	81.694				
620	78.993				
621	76.61				
622	71.366				
623	43.452				
624	11.93				
625	1.791				
626	0.343				
627	0.095				
628	0.033				
629	0.012				
630	0.004				
631	0.0				
632	0.0				
633	0.0				
634	0.0				
635	0.0				
636	0.0				
637	0.0				
638	0.0				
639	0.0				
640	0.0				
641	0.0				
642	0.0				
643	0.0				
644	0.0				
645	0.0				
646	0.0				
647	0.0				
648	0.0				
649	0.0				
650	0.0				
