Wavelength	Transmittance	hex_color	Manufacturer	Name	Filter Number
300	85.264		Omega	340RB Notch (Rejection Band)	W5974
301	77.63				
302	76.032				
303	80.479				
304	86.45				
305	78.411				
306	70.509				
307	74.001				
308	81.513				
309	82.992				
310	66.405				
311	62.906				
312	74.409				
313	83.646				
314	78.323				
315	68.411				
316	75.753				
317	69.827				
318	54.516				
319	44.388				
320	60.662				
321	36.96				
322	15.53				
323	23.301				
324	10.787				
325	0.666				
326	0.188				
327	0.144				
328	0.081				
329	0.104				
330	0.0				
331	0.021				
332	0.07				
333	0.005				
334	0.092				
335	0.072				
336	0.025				
337	0.084				
338	0.059				
339	0.037				
340	0.138				
341	0.008				
342	0.071				
343	0.035				
344	0.0				
345	0.032				
346	0.014				
347	0.0				
348	0.093				
349	0.0				
350	0.015				
351	0.156				
352	0.205				
353	0.039				
354	0.257				
355	0.21				
356	0.477				
357	1.287				
358	5.269				
359	38.86				
360	55.361				
361	59.697				
362	81.47				
363	67.975				
364	50.621				
365	56.054				
366	80.262				
367	87.644				
368	67.448				
369	57.085				
370	53.772				
371	61.448				
372	77.631				
373	92.062				
374	91.722				
375	81.423				
376	75.033				
377	76.468				
378	83.536				
379	91.83				
380	94.55				
381	91.147				
382	85.377				
383	82.844				
384	84.156				
385	87.206				
386	91.709				
387	93.354				
388	91.167				
389	87.743				
390	84.63				
391	84.73				
392	87.988				
393	92.285				
394	95.359				
395	94.695				
396	91.488				
397	88.158				
398	85.954				
399	86.659				
400	89.377				
401	92.658				
402	94.806				
403	94.188				
404	91.206				
405	86.393				
406	83.61				
407	82.448				
408	83.589				
409	86.973				
410	90.806				
411	94.362				
412	95.718				
413	95.612				
414	93.961				
415	92.22				
416	91.483				
417	91.678				
418	92.784				
419	94.986				
420	95.895				
421	95.622				
422	93.846				
423	90.651				
424	87.613				
425	85.731				
426	85.5				
427	86.15				
428	87.86				
429	91.101				
430	93.955				
431	95.501				
432	96.104				
433	95.869				
434	95.063				
435	93.97				
436	93.6				
437	93.608				
438	94.009				
439	94.619				
440	94.961				
441	94.664				
442	93.988				
443	93.155				
444	91.733				
445	90.548				
446	89.98				
447	90.185				
448	91.176				
449	92.184				
450	93.988				
451	95.247				
452	96.042				
453	96.174				
454	95.767				
455	95.034				
456	94.315				
457	93.903				
458	93.845				
459	94.012				
460	94.741				
461	95.233				
462	96.001				
463	96.24				
464	96.029				
465	95.557				
466	94.622				
467	93.848				
468	92.851				
469	92.176				
470	92.027				
471	92.202				
472	92.702				
473	93.449				
474	94.261				
475	95.074				
476	95.381				
477	95.626				
478	95.758				
479	95.429				
480	95.232				
481	95.048				
482	95.093				
483	95.259				
484	95.47				
485	95.827				
486	96.144				
487	96.368				
488	96.372				
489	96.2				
490	95.889				
491	95.443				
492	94.979				
493	94.827				
494	94.652				
495	94.478				
496	94.5				
497	94.698				
498	94.869				
499	95.04				
500	95.21				
501	94.931				
502	94.736				
503	94.28				
504	93.795				
505	93.43				
506	93.09				
507	92.934				
508	93.036				
509	93.407				
510	93.797				
511	94.578				
512	95.332				
513	95.943				
514	96.436				
515	96.342				
516	96.204				
517	95.52				
518	94.88				
519	93.576				
520	92.731				
521	91.865				
522	91.368				
523	90.962				
524	90.774				
525	90.928				
526	91.667				
527	92.299				
528	93.193				
529	94.115				
530	94.948				
531	95.776				
532	96.098				
533	96.041				
534	95.87				
535	95.478				
536	94.742				
537	93.842				
538	93.283				
539	92.864				
540	92.56				
541	92.439				
542	92.579				
543	92.959				
544	93.388				
545	94.03				
546	94.602				
547	95.17				
548	95.603				
549	95.795				
550	96.132				
551	96.048				
552	95.589				
553	95.32				
554	94.757				
555	94.152				
556	93.892				
557	93.414				
558	93.192				
559	93.068				
560	93.042				
561	92.937				
562	93.33				
563	93.338				
564	93.615				
565	93.888				
566	94.02				
567	94.05				
568	94.236				
569	94.102				
570	94.241				
571	94.1				
572	94.004				
573	94.032				
574	94.172				
575	94.367				
576	94.392				
577	94.723				
578	95.125				
579	95.456				
580	95.777				
581	96.078				
582	96.301				
583	96.572				
584	96.386				
585	96.446				
586	96.083				
587	96.073				
588	95.584				
589	95.092				
590	94.553				
591	93.96				
592	93.527				
593	93.328				
594	92.917				
595	92.87				
596	92.649				
597	92.696				
598	92.761				
599	92.724				
600	92.982				
601	93.148				
602	93.265				
603	93.378				
604	93.475				
605	93.395				
606	93.357				
607	93.487				
608	93.295				
609	93.013				
610	92.913				
611	92.64				
612	92.646				
613	92.437				
614	92.514				
615	92.492				
616	92.603				
617	93.233				
618	93.321				
619	93.626				
620	94.127				
621	94.616				
622	94.779				
623	95.217				
624	95.424				
625	95.825				
626	95.814				
627	95.87				
628	95.885				
629	95.792				
630	95.574				
631	95.065				
632	94.779				
633	94.413				
634	94.109				
635	93.68				
636	93.198				
637	93.148				
638	92.731				
639	92.402				
640	92.269				
641	92.209				
642	92.042				
643	92.051				
644	92.294				
645	92.175				
646	92.322				
647	92.797				
648	92.975				
649	92.959				
650	93.038				
651	93.283				
652	93.398				
653	93.443				
654	93.587				
655	93.84				
656	93.976				
657	94.187				
658	94.318				
659	94.423				
660	94.554				
661	94.898				
662	95.109				
663	95.407				
664	95.519				
665	95.761				
666	96.153				
667	96.241				
668	96.267				
669	96.314				
670	96.141				
671	96.167				
672	95.994				
673	96.042				
674	95.57				
675	95.261				
676	94.774				
677	94.473				
678	93.93				
679	93.826				
680	93.292				
681	92.986				
682	92.594				
683	92.522				
684	92.198				
685	92.248				
686	91.939				
687	92.284				
688	92.182				
689	92.475				
690	92.714				
691	93.011				
692	93.336				
693	94.156				
694	94.376				
695	94.576				
696	95.211				
697	95.623				
698	96.048				
699	96.209				
700	96.384				
701	96.535				
702	96.5				
703	96.457				
704	96.513				
705	96.151				
706	95.825				
707	95.728				
708	95.418				
709	94.868				
710	94.956				
711	94.505				
712	93.98				
713	93.777				
714	93.451				
715	93.467				
716	93.469				
717	93.495				
718	93.617				
719	93.769				
720	93.81				
721	94.055				
722	94.292				
723	94.333				
724	94.531				
725	95.059				
726	95.292				
727	95.405				
728	95.685				
729	95.821				
730	95.699				
731	95.933				
732	96.064				
733	95.799				
734	95.953				
735	95.803				
736	95.488				
737	95.234				
738	94.535				
739	94.464				
740	94.329				
741	94.056				
742	93.938				
743	93.686				
744	93.315				
745	93.374				
746	93.289				
747	92.904				
748	93.176				
749	92.917				
750	93.134				
751	93.247				
752	93.457				
753	93.898				
754	94.128				
755	94.05				
756	94.31				
757	94.844				
758	94.902				
759	95.18				
760	95.454				
761	95.5				
762	95.721				
763	96.294				
764	96.004				
765	95.966				
766	95.555				
767	96.252				
768	95.679				
769	95.344				
770	95.194				
771	94.71				
772	94.259				
773	94.247				
774	93.608				
775	93.849				
776	93.643				
777	93.257				
778	92.773				
779	92.601				
780	91.915				
781	92.257				
782	92.351				
783	91.9				
784	92.26				
785	92.542				
786	92.481				
787	92.829				
788	92.192				
789	92.887				
790	93.128				
791	93.683				
792	93.518				
793	94.307				
794	94.369				
795	94.796				
796	95.24				
797	94.913				
798	95.253				
799	95.834				
800	96.053				
801	95.805				
802	95.763				
803	96.064				
804	95.659				
805	95.418				
806	95.523				
807	95.258				
808	95.41				
809	95.307				
810	94.895				
811	94.854				
812	94.547				
813	94.05				
814	94.046				
815	94.212				
816	93.54				
817	93.282				
818	93.224				
819	93.161				
820	92.835				
821	93.47				
822	92.818				
823	92.701				
824	92.726				
825	92.554				
826	92.946				
827	93.003				
828	93.225				
829	93.134				
830	93.229				
831	92.933				
832	93.626				
833	93.352				
834	93.944				
835	93.932				
836	94.058				
837	94.131				
838	94.111				
839	94.341				
840	94.497				
841	94.363				
842	94.262				
843	94.229				
844	94.242				
845	94.33				
846	93.974				
847	94.374				
848	93.782				
849	93.842				
850	93.885				
851	93.32				
852	93.587				
853	93.297				
854	93.337				
855	93.248				
856	93.383				
857	93.535				
858	93.082				
859	92.86				
860	92.716				
861	93.006				
862	93.632				
863	92.953				
864	93.11				
865	92.662				
866	93.284				
867	92.972				
868	93.498				
869	93.15				
870	93.563				
871	93.814				
872	94.382				
873	94.438				
874	94.272				
875	94.13				
876	94.57				
877	94.321				
878	94.529				
879	94.736				
880	94.613				
881	94.792				
882	94.868				
883	94.902				
884	94.908				
885	94.675				
886	94.908				
887	94.436				
888	94.595				
889	94.284				
890	94.58				
891	93.86				
892	93.622				
893	93.697				
894	93.909				
895	93.52				
896	93.461				
897	93.059				
898	92.531				
899	92.243				
900	92.572				
901	92.809				
902	92.445				
903	92.261				
904	92.191				
905	92.288				
906	92.234				
907	92.382				
908	92.142				
909	92.131				
910	92.64				
911	92.154				
912	92.223				
913	92.184				
914	92.677				
915	93.052				
916	93.059				
917	93.094				
918	93.45				
919	93.441				
920	94.008				
921	93.753				
922	93.73				
923	93.975				
924	94.375				
925	94.781				
926	94.877				
927	94.17				
928	94.956				
929	95.04				
930	94.852				
931	94.588				
932	94.574				
933	95.324				
934	94.762				
935	94.294				
936	94.574				
937	94.795				
938	94.529				
939	94.022				
940	94.136				
941	94.636				
942	93.584				
943	93.659				
944	93.774				
945	93.395				
946	93.478				
947	93.226				
948	93.144				
949	92.968				
950	93.266				
951	93.31				
952	93.267				
953	92.883				
954	92.964				
955	93.421				
956	92.765				
957	93.332				
958	93.002				
959	93.223				
960	92.766				
961	93.073				
962	92.899				
963	93.626				
964	93.816				
965	94.191				
966	94.136				
967	94.135				
968	93.652				
969	94.422				
970	94.26				
971	95.118				
972	94.362				
973	94.624				
974	95.293				
975	95.471				
976	95.244				
977	94.758				
978	95.078				
979	95.48				
980	95.43				
981	95.887				
982	95.362				
983	95.111				
984	95.828				
985	94.956				
986	95.978				
987	95.16				
988	94.885				
989	94.381				
990	94.588				
991	94.482				
992	94.306				
993	94.336				
994	93.801				
995	93.713				
996	93.571				
997	93.29				
998	92.675				
999	92.686				
1000	93.112				
1001	92.221				
1002	92.156				
1003	90.882				
1004	92.652				
1005	91.58				
1006	91.462				
1007	90.495				
1008	91.065				
1009	91.364				
1010	90.789				
1011	90.562				
1012	90.646				
1013	90.518				
1014	90.154				
1015	90.667				
1016	90.625				
1017	90.649				
1018	90.411				
1019	91.776				
1020	90.808				
1021	90.392				
1022	89.714				
1023	90.439				
1024	90.47				
1025	92.431				
1026	91.748				
1027	91.847				
1028	93.234				
1029	92.916				
1030	92.158				
1031	92.184				
1032	92.738				
1033	93.728				
1034	92.979				
1035	93.628				
1036	92.229				
1037	95.618				
1038	92.349				
1039	92.754				
1040	94.282				
1041	93.914				
1042	93.192				
1043	96.027				
1044	93.814				
1045	93.803				
1046	95.376				
1047	94.133				
1048	94.222				
1049	93.905				
1050	95.506				
1051	95.525				
1052	93.468				
1053	94.477				
1054	93.069				
1055	95.219				
1056	96.291				
1057	94.866				
1058	94.528				
1059	95.816				
1060	94.891				
1061	92.48				
1062	96.034				
1063	88.335				
1064	94.921				
1065	90.184				
1066	91.176				
1067	89.984				
1068	97.072				
1069	94.196				
1070	92.557				
1071	85.818				
1072	92.83				
1073	90.76				
1074	91.78				
1075	94.011				
1076	87.178				
1077	93.166				
1078	90.734				
1079	95.827				
1080	90.953				
1081	90.396				
1082	87.418				
1083	91.718				
1084	91.44				
1085	89.235				
1086	91.534				
1087	93.966				
1088	89.1				
1089	94.714				
1090	97.917				
1091	96.543				
1092	99.376				
1093	93.325				
1094	91.173				
1095	99.59				
1096	88.215				
1097	96.804				
1098	98.079				
1099	91.169				
1100	92.328				
