Wavelength	Transmittance	hex_color	Manufacturer	Name	Filter Number
400	53.765		Omega	COATED LB165 Other	W5375
401	53.348				
402	52.957				
403	52.612				
404	52.368				
405	52.064				
406	51.856				
407	51.524				
408	51.289				
409	51.003				
410	50.696				
411	50.32				
412	49.92				
413	49.369				
414	48.892				
415	48.221				
416	47.647				
417	46.844				
418	46.285				
419	45.8				
420	45.564				
421	45.609				
422	45.802				
423	46.208				
424	46.438				
425	46.707				
426	46.884				
427	46.983				
428	47.055				
429	47.046				
430	47.075				
431	47.11				
432	47.135				
433	47.204				
434	47.311				
435	47.385				
436	47.448				
437	47.555				
438	47.617				
439	47.696				
440	47.789				
441	47.899				
442	47.846				
443	47.874				
444	47.859				
445	47.828				
446	47.735				
447	47.654				
448	47.478				
449	47.306				
450	47.179				
451	46.888				
452	46.659				
453	46.397				
454	46.113				
455	45.732				
456	45.464				
457	45.071				
458	44.795				
459	44.387				
460	43.994				
461	43.672				
462	43.216				
463	42.897				
464	42.437				
465	42.037				
466	41.457				
467	40.872				
468	40.376				
469	39.884				
470	39.408				
471	38.8				
472	38.241				
473	37.671				
474	37.222				
475	36.614				
476	36.055				
477	35.532				
478	34.926				
479	34.484				
480	33.96				
481	33.374				
482	32.947				
483	32.36				
484	31.904				
485	31.44				
486	31.046				
487	30.534				
488	30.125				
489	29.635				
490	29.142				
491	28.784				
492	28.365				
493	27.998				
494	27.61				
495	27.146				
496	26.826				
497	26.475				
498	26.12				
499	25.804				
500	25.454				
501	25.148				
502	24.752				
503	24.431				
504	24.142				
505	23.767				
506	23.482				
507	23.098				
508	22.794				
509	22.514				
510	22.201				
511	21.908				
512	21.648				
513	21.357				
514	21.15				
515	20.886				
516	20.585				
517	20.335				
518	20.072				
519	19.796				
520	19.643				
521	19.36				
522	19.134				
523	18.843				
524	18.585				
525	18.383				
526	18.167				
527	17.932				
528	17.722				
529	17.514				
530	17.312				
531	17.186				
532	17.034				
533	16.89				
534	16.801				
535	16.686				
536	16.592				
537	16.542				
538	16.498				
539	16.46				
540	16.452				
541	16.447				
542	16.463				
543	16.482				
544	16.525				
545	16.579				
546	16.664				
547	16.772				
548	16.891				
549	16.982				
550	17.147				
551	17.269				
552	17.416				
553	17.564				
554	17.718				
555	17.842				
556	17.938				
557	18.066				
558	18.114				
559	18.228				
560	18.285				
561	18.283				
562	18.323				
563	18.33				
564	18.354				
565	18.289				
566	18.268				
567	18.197				
568	18.12				
569	18.026				
570	17.882				
571	17.729				
572	17.592				
573	17.408				
574	17.224				
575	17.039				
576	16.817				
577	16.563				
578	16.321				
579	16.041				
580	15.762				
581	15.456				
582	15.228				
583	14.937				
584	14.661				
585	14.342				
586	14.124				
587	13.927				
588	13.738				
589	13.515				
590	13.356				
591	13.232				
592	13.152				
593	13.106				
594	13.049				
595	13.069				
596	13.014				
597	13.071				
598	13.099				
599	13.092				
600	13.126				
601	13.17				
602	13.194				
603	13.187				
604	13.241				
605	13.209				
606	13.205				
607	13.204				
608	13.198				
609	13.18				
610	13.156				
611	13.11				
612	13.072				
613	13.07				
614	13.021				
615	12.955				
616	12.897				
617	12.9				
618	12.799				
619	12.752				
620	12.706				
621	12.632				
622	12.484				
623	12.417				
624	12.366				
625	12.269				
626	12.181				
627	12.073				
628	11.946				
629	11.857				
630	11.736				
631	11.597				
632	11.449				
633	11.357				
634	11.232				
635	11.143				
636	10.972				
637	10.841				
638	10.77				
639	10.661				
640	10.533				
641	10.459				
642	10.374				
643	10.31				
644	10.239				
645	10.168				
646	10.071				
647	10.064				
648	10.016				
649	10.018				
650	9.933				
651	9.941				
652	9.93				
653	9.889				
654	9.995				
655	9.894				
656	9.911				
657	9.974				
658	9.937				
659	9.965				
660	10.015				
661	10.094				
662	10.157				
663	10.16				
664	10.259				
665	10.308				
666	10.358				
667	10.4				
668	10.508				
669	10.574				
670	10.67				
671	10.732				
672	10.881				
673	11.002				
674	11.026				
675	11.103				
676	11.162				
677	11.325				
678	11.413				
679	11.464				
680	11.562				
681	11.611				
682	11.766				
683	11.842				
684	11.857				
685	11.946				
686	12.025				
687	12.048				
688	12.111				
689	12.16				
690	12.207				
691	12.19				
692	12.206				
693	12.191				
694	12.284				
695	12.179				
696	12.213				
697	12.19				
698	12.188				
699	12.149				
700	12.137				
701	12.128				
702	12.078				
703	12.034				
704	11.973				
705	11.942				
706	11.89				
707	11.837				
708	11.803				
709	11.746				
710	11.708				
711	11.628				
712	11.582				
713	11.525				
714	11.422				
715	11.452				
716	11.357				
717	11.268				
718	11.222				
719	11.191				
720	11.08				
721	11.055				
722	10.923				
723	10.984				
724	10.843				
725	10.818				
726	10.785				
727	10.693				
728	10.691				
729	10.612				
730	10.545				
731	10.476				
732	10.505				
733	10.409				
734	10.378				
735	10.322				
736	10.193				
737	10.274				
738	10.154				
739	10.147				
740	10.01				
741	10.007				
742	9.949				
743	9.981				
744	9.895				
745	9.913				
746	9.756				
747	9.733				
748	9.686				
749	9.704				
750	9.654				
751	9.641				
752	9.587				
753	9.592				
754	9.597				
755	9.437				
756	9.533				
757	9.504				
758	9.501				
759	9.406				
760	9.403				
761	9.414				
762	9.336				
763	9.42				
764	9.266				
765	9.311				
766	9.302				
767	9.204				
768	9.241				
769	9.104				
770	9.245				
771	9.233				
772	9.108				
773	9.15				
774	9.223				
775	9.076				
776	9.036				
777	9.029				
778	8.998				
779	9.178				
780	9.096				
781	9.062				
782	8.962				
783	9.105				
784	9.088				
785	8.934				
786	8.91				
787	9.007				
788	8.908				
789	8.924				
790	8.973				
791	8.931				
792	8.818				
793	8.988				
794	8.947				
795	9.007				
796	8.921				
797	8.922				
798	8.919				
799	8.893				
800	9.065				
801	8.945				
802	8.982				
803	9.03				
804	8.963				
805	8.914				
806	9.025				
807	9.004				
808	9.04				
809	9.072				
810	8.89				
811	9.04				
812	8.964				
813	9.017				
814	8.995				
815	9.174				
816	9.215				
817	9.118				
818	9.135				
819	8.986				
820	9.01				
821	9.13				
822	9.098				
823	9.086				
824	9.137				
825	9.159				
826	9.218				
827	9.177				
828	9.228				
829	9.23				
830	9.234				
831	9.283				
832	9.206				
833	9.168				
834	9.335				
835	9.35				
836	9.373				
837	9.367				
838	9.516				
839	9.559				
840	9.483				
841	9.434				
842	9.428				
843	9.494				
844	9.561				
845	9.589				
846	9.631				
847	9.715				
848	9.694				
849	9.687				
850	9.768				
