Wavelength	Transmittance	hex_color	Manufacturer	Name	Filter Number
300	88.769		Omega	210RB Notch (Rejection Band)	W4953
301	89.46				
302	89.947				
303	90.287				
304	90.384				
305	90.142				
306	89.705				
307	89.042				
308	88.306				
309	87.636				
310	86.756				
311	86.23				
312	85.721				
313	85.398				
314	85.301				
315	85.419				
316	85.561				
317	86.014				
318	86.605				
319	87.148				
320	87.754				
321	88.348				
322	89.125				
323	89.644				
324	89.892				
325	90.106				
326	90.18				
327	90.103				
328	89.895				
329	89.649				
330	89.224				
331	88.859				
332	88.504				
333	88.005				
334	87.816				
335	87.453				
336	87.355				
337	87.322				
338	87.277				
339	87.446				
340	87.731				
341	87.938				
342	88.363				
343	88.764				
344	89.144				
345	89.487				
346	89.83				
347	90.144				
348	90.348				
349	90.525				
350	90.592				
351	90.629				
352	90.465				
353	90.324				
354	90.182				
355	89.812				
356	89.481				
357	89.175				
358	88.856				
359	88.571				
360	88.274				
361	88.086				
362	87.887				
363	87.709				
364	87.671				
365	87.684				
366	87.693				
367	87.798				
368	87.917				
369	88.13				
370	88.475				
371	88.709				
372	89.011				
373	89.194				
374	89.483				
375	89.676				
376	89.85				
377	89.938				
378	89.976				
379	89.896				
380	89.781				
381	89.691				
382	89.477				
383	89.185				
384	89.007				
385	88.67				
386	88.364				
387	88.042				
388	87.779				
389	87.458				
390	87.259				
391	87.089				
392	86.927				
393	86.813				
394	86.667				
395	86.605				
396	86.705				
397	86.778				
398	86.838				
399	87.038				
400	87.321				
401	87.494				
402	87.817				
403	88.077				
404	88.447				
405	88.813				
406	89.094				
407	89.415				
408	89.732				
409	90.028				
410	90.292				
411	90.419				
412	90.607				
413	90.765				
414	90.771				
415	90.801				
416	90.834				
417	90.714				
418	90.602				
419	90.457				
420	90.225				
421	90.025				
422	89.776				
423	89.575				
424	89.229				
425	89.06				
426	88.708				
427	88.528				
428	88.296				
429	88.088				
430	87.888				
431	87.705				
432	87.586				
433	87.462				
434	87.348				
435	87.31				
436	87.294				
437	87.266				
438	87.323				
439	87.369				
440	87.38				
441	87.503				
442	87.642				
443	87.799				
444	87.961				
445	88.166				
446	88.273				
447	88.459				
448	88.618				
449	88.851				
450	88.986				
451	89.143				
452	89.289				
453	89.411				
454	89.522				
455	89.656				
456	89.653				
457	89.679				
458	89.719				
459	89.699				
460	89.63				
461	89.543				
462	89.44				
463	89.465				
464	89.333				
465	89.26				
466	89.141				
467	89.092				
468	88.944				
469	88.888				
470	88.75				
471	88.609				
472	88.592				
473	88.482				
474	88.441				
475	88.321				
476	88.261				
477	88.216				
478	88.188				
479	88.196				
480	88.135				
481	88.084				
482	88.157				
483	88.135				
484	88.186				
485	88.22				
486	88.245				
487	88.367				
488	88.365				
489	88.49				
490	88.62				
491	88.651				
492	88.749				
493	88.898				
494	88.987				
495	89.036				
496	89.135				
497	89.273				
498	89.397				
499	89.475				
500	89.484				
501	89.587				
502	89.596				
503	89.662				
504	89.62				
505	89.652				
506	89.578				
507	89.598				
508	89.54				
509	89.441				
510	89.438				
511	89.309				
512	89.197				
513	89.036				
514	88.952				
515	88.784				
516	88.628				
517	88.524				
518	88.528				
519	88.252				
520	88.08				
521	87.958				
522	87.85				
523	87.714				
524	87.574				
525	87.469				
526	87.313				
527	87.231				
528	87.061				
529	87.027				
530	86.951				
531	86.826				
532	86.756				
533	86.746				
534	86.722				
535	86.633				
536	86.589				
537	86.549				
538	86.595				
539	86.615				
540	86.644				
541	86.678				
542	86.695				
543	86.737				
544	86.79				
545	86.916				
546	86.951				
547	87.023				
548	87.121				
549	87.298				
550	87.402				
551	87.537				
552	87.666				
553	87.847				
554	88.004				
555	88.171				
556	88.221				
557	88.414				
558	88.598				
559	88.69				
560	88.969				
561	89.097				
562	89.289				
563	89.463				
564	89.561				
565	89.751				
566	89.883				
567	90.085				
568	90.104				
569	90.341				
570	90.356				
571	90.5				
572	90.538				
573	90.642				
574	90.72				
575	90.764				
576	90.786				
577	90.824				
578	90.848				
579	90.895				
580	90.851				
581	90.844				
582	90.764				
583	90.748				
584	90.706				
585	90.748				
586	90.606				
587	90.393				
588	90.457				
589	90.33				
590	90.248				
591	90.11				
592	89.957				
593	89.826				
594	89.721				
595	89.64				
596	89.597				
597	89.41				
598	89.232				
599	89.139				
600	88.955				
601	88.906				
602	88.734				
603	88.654				
604	88.568				
605	88.435				
606	88.201				
607	88.19				
608	88.048				
609	87.981				
610	87.941				
611	87.878				
612	87.731				
613	87.683				
614	87.584				
615	87.564				
616	87.596				
617	87.436				
618	87.424				
619	87.402				
620	87.407				
621	87.382				
622	87.283				
623	87.264				
624	87.282				
625	87.322				
626	87.327				
627	87.382				
628	87.394				
629	87.52				
630	87.448				
631	87.51				
632	87.574				
633	87.643				
634	87.78				
635	87.752				
636	87.882				
637	87.982				
638	88.057				
639	88.204				
640	88.281				
641	88.308				
642	88.492				
643	88.608				
644	88.555				
645	88.678				
646	88.769				
647	88.854				
648	88.982				
649	89.06				
650	89.186				
651	89.23				
652	89.226				
653	89.428				
654	89.48				
655	89.571				
656	89.539				
657	89.69				
658	89.688				
659	89.807				
660	89.89				
661	89.92				
662	89.922				
663	89.993				
664	90.133				
665	90.028				
666	90.053				
667	90.118				
668	90.184				
669	90.224				
670	90.236				
671	90.19				
672	90.179				
673	90.073				
674	90.074				
675	90.07				
676	89.858				
677	89.923				
678	89.891				
679	89.886				
680	89.783				
681	89.661				
682	89.474				
683	89.405				
684	89.403				
685	89.27				
686	89.155				
687	89.083				
688	88.889				
689	88.76				
690	88.652				
691	88.549				
692	88.323				
693	88.217				
694	88.209				
695	87.87				
696	87.848				
697	87.608				
698	87.422				
699	87.329				
700	87.166				
701	87.0				
702	86.879				
703	86.847				
704	86.638				
705	86.677				
706	86.6				
707	86.459				
708	86.478				
709	86.446				
710	86.428				
711	86.451				
712	86.583				
713	86.486				
714	86.544				
715	86.519				
716	86.575				
717	86.61				
718	86.631				
719	86.669				
720	86.603				
721	86.774				
722	86.79				
723	86.895				
724	86.895				
725	86.91				
726	86.97				
727	87.062				
728	87.061				
729	87.119				
730	87.247				
731	87.189				
732	87.368				
733	87.305				
734	87.305				
735	87.387				
736	87.522				
737	87.563				
738	87.724				
739	87.688				
740	87.643				
741	87.82				
742	87.8				
743	87.843				
744	87.976				
745	87.852				
746	88.076				
747	88.133				
748	88.103				
749	88.425				
750	88.43				
751	88.476				
752	88.476				
753	88.547				
754	88.749				
755	88.718				
756	88.69				
757	88.834				
758	88.822				
759	88.934				
760	89.029				
761	89.163				
762	89.304				
763	89.289				
764	89.1				
765	89.355				
766	89.398				
767	89.463				
768	89.54				
769	89.605				
770	89.872				
771	89.517				
772	89.865				
773	89.774				
774	89.63				
775	89.857				
776	89.976				
777	89.938				
778	90.123				
779	90.116				
780	90.283				
781	90.249				
782	90.137				
783	90.264				
784	90.24				
785	90.25				
786	90.047				
787	90.12				
788	90.232				
789	90.287				
790	90.379				
791	90.355				
792	90.096				
793	90.224				
794	90.17				
795	90.342				
796	90.258				
797	90.235				
798	90.309				
799	90.355				
800	90.224				
