Wavelength	Transmittance	hex_color	Manufacturer	Name	Filter Number
400	0.004		Omega	590ALP Longpass	W3608
401	0.0				
402	0.0				
403	0.003				
404	0.002				
405	0.0				
406	0.0				
407	0.001				
408	0.002				
409	0.001				
410	0.003				
411	0.002				
412	0.002				
413	0.002				
414	0.0				
415	0.0				
416	0.0				
417	0.0				
418	0.0				
419	0.001				
420	0.0				
421	0.0				
422	0.0				
423	0.0				
424	0.002				
425	0.002				
426	0.0				
427	0.001				
428	0.0				
429	0.0				
430	0.0				
431	0.0				
432	0.0				
433	0.0				
434	0.001				
435	0.0				
436	0.0				
437	0.001				
438	0.0				
439	0.0				
440	0.002				
441	0.0				
442	0.004				
443	0.0				
444	0.0				
445	0.0				
446	0.003				
447	0.0				
448	0.0				
449	0.0				
450	0.0				
451	0.0				
452	0.007				
453	0.003				
454	0.003				
455	0.001				
456	0.0				
457	0.0				
458	0.003				
459	0.0				
460	0.004				
461	0.0				
462	0.0				
463	0.0				
464	0.004				
465	0.0				
466	0.001				
467	0.001				
468	0.003				
469	0.0				
470	0.001				
471	0.001				
472	0.0				
473	0.003				
474	0.0				
475	0.002				
476	0.0				
477	0.002				
478	0.004				
479	0.002				
480	0.0				
481	0.0				
482	0.001				
483	0.0				
484	0.0				
485	0.004				
486	0.0				
487	0.006				
488	0.0				
489	0.002				
490	0.004				
491	0.0				
492	0.0				
493	0.002				
494	0.0				
495	0.006				
496	0.001				
497	0.006				
498	0.002				
499	0.0				
500	0.002				
501	0.001				
502	0.0				
503	0.0				
504	0.0				
505	0.002				
506	0.0				
507	0.001				
508	0.0				
509	0.0				
510	0.001				
511	0.004				
512	0.0				
513	0.004				
514	0.001				
515	0.002				
516	0.006				
517	0.0				
518	0.001				
519	0.0				
520	0.003				
521	0.0				
522	0.0				
523	0.001				
524	0.002				
525	0.0				
526	0.001				
527	0.0				
528	0.0				
529	0.002				
530	0.0				
531	0.0				
532	0.001				
533	0.001				
534	0.002				
535	0.0				
536	0.0				
537	0.002				
538	0.007				
539	0.0				
540	0.0				
541	0.0				
542	0.0				
543	0.0				
544	0.001				
545	0.0				
546	0.0				
547	0.0				
548	0.0				
549	0.001				
550	0.004				
551	0.002				
552	0.0				
553	0.002				
554	0.0				
555	0.0				
556	0.0				
557	0.0				
558	0.0				
559	0.0				
560	0.0				
561	0.001				
562	0.0				
563	0.0				
564	0.0				
565	0.003				
566	0.0				
567	0.0				
568	0.003				
569	0.001				
570	0.005				
571	0.001				
572	0.0				
573	0.002				
574	0.001				
575	0.002				
576	0.0				
577	0.002				
578	0.002				
579	0.002				
580	0.0				
581	0.005				
582	0.012				
583	0.028				
584	0.063				
585	0.173				
586	0.515				
587	1.717				
588	6.578				
589	26.051				
590	65.642				
591	85.705				
592	85.53				
593	86.861				
594	89.537				
595	90.43				
596	89.899				
597	89.187				
598	89.393				
599	90.382				
600	91.576				
601	92.44				
602	92.623				
603	92.269				
604	91.775				
605	91.378				
606	91.438				
607	91.938				
608	92.584				
609	93.282				
610	93.852				
611	93.955				
612	93.777				
613	93.325				
614	92.786				
615	92.32				
616	91.971				
617	91.944				
618	92.147				
619	92.589				
620	93.071				
621	93.648				
622	94.048				
623	94.251				
624	94.302				
625	94.102				
626	93.928				
627	93.619				
628	93.345				
629	93.201				
630	93.161				
631	93.144				
632	93.429				
633	93.676				
634	93.952				
635	94.18				
636	94.414				
637	94.473				
638	94.412				
639	94.266				
640	93.954				
641	93.567				
642	93.19				
643	92.852				
644	92.653				
645	92.469				
646	92.439				
647	92.494				
648	92.721				
649	92.982				
650	93.321				
651	93.636				
652	93.979				
653	94.197				
654	94.457				
655	94.504				
656	94.407				
657	94.346				
658	94.235				
659	93.947				
660	93.82				
661	93.616				
662	93.486				
663	93.461				
664	93.277				
665	93.364				
666	93.533				
667	93.645				
668	93.856				
669	93.918				
670	94.158				
671	94.28				
672	94.48				
673	94.496				
674	94.49				
675	94.422				
676	94.345				
677	94.207				
678	93.954				
679	93.906				
680	93.679				
681	93.536				
682	93.418				
683	93.33				
684	93.352				
685	93.389				
686	93.457				
687	93.565				
688	93.78				
689	93.94				
690	94.131				
691	94.238				
692	94.407				
693	94.545				
694	94.522				
695	94.486				
696	94.534				
697	94.364				
698	94.263				
699	94.124				
700	93.9				
701	93.772				
702	93.655				
703	93.556				
704	93.404				
705	93.284				
706	93.302				
707	93.302				
708	93.283				
709	93.388				
710	93.498				
711	93.615				
712	93.791				
713	93.938				
714	94.008				
715	94.206				
716	94.262				
717	94.224				
718	94.326				
719	94.428				
720	94.261				
721	94.212				
722	94.078				
723	93.972				
724	93.827				
725	93.627				
726	93.572				
727	93.441				
728	93.241				
729	93.245				
730	93.174				
731	93.074				
732	93.26				
733	93.232				
734	93.351				
735	93.329				
736	93.393				
737	93.49				
738	93.654				
739	93.75				
740	93.816				
741	93.997				
742	94.088				
743	94.113				
744	94.103				
745	94.11				
746	94.121				
747	94.195				
748	94.132				
749	93.966				
750	94.135				
751	93.751				
752	93.744				
753	93.623				
754	93.612				
755	93.533				
756	93.388				
757	93.475				
758	93.37				
759	93.293				
760	93.302				
761	93.337				
762	93.33				
763	93.516				
764	93.516				
765	93.757				
766	93.664				
767	93.65				
768	93.807				
769	93.928				
770	93.899				
771	93.921				
772	93.909				
773	93.988				
774	94.081				
775	93.975				
776	93.921				
777	93.858				
778	93.757				
779	93.802				
780	93.748				
781	93.552				
782	93.572				
783	93.43				
784	93.36				
785	93.456				
786	93.28				
787	93.222				
788	93.164				
789	93.2				
790	93.238				
791	93.147				
792	93.2				
793	93.213				
794	93.303				
795	93.432				
796	93.423				
797	93.422				
798	93.511				
799	93.598				
800	93.813				
801	93.73				
802	93.75				
803	93.861				
804	93.763				
805	93.801				
806	93.812				
807	93.656				
808	93.811				
809	93.502				
810	93.618				
811	93.468				
812	93.394				
813	93.357				
814	93.266				
815	93.253				
816	93.208				
817	93.196				
818	93.067				
819	93.093				
820	93.047				
821	92.969				
822	92.743				
823	92.994				
824	92.863				
825	93.023				
826	93.164				
827	92.998				
828	93.1				
829	93.029				
830	93.181				
831	93.37				
832	93.35				
833	93.359				
834	93.365				
835	93.323				
836	93.346				
837	93.267				
838	93.641				
839	93.438				
840	93.701				
841	93.612				
842	93.561				
843	93.544				
844	93.637				
845	93.629				
846	93.628				
847	93.597				
848	93.57				
849	93.331				
850	93.159				
851	93.448				
852	93.547				
853	93.303				
854	93.408				
855	92.944				
856	93.435				
857	92.817				
858	93.301				
859	93.675				
860	92.669				
861	92.852				
862	93.232				
863	93.102				
864	93.234				
865	93.443				
866	92.869				
867	93.196				
868	93.262				
869	92.469				
870	92.915				
871	93.426				
872	92.908				
873	92.835				
874	93.623				
875	93.434				
876	92.53				
877	92.865				
878	94.108				
879	93.443				
880	93.426				
881	93.415				
882	93.412				
883	93.428				
884	93.396				
885	93.396				
886	93.39				
887	93.346				
888	93.321				
889	93.305				
890	93.28				
891	93.264				
892	93.22				
893	93.246				
894	93.203				
895	93.185				
896	93.141				
897	93.143				
898	93.113				
899	93.112				
900	93.076				
901	93.095				
902	93.087				
903	93.059				
904	93.069				
905	93.052				
906	93.054				
907	93.086				
908	93.066				
909	93.069				
910	93.088				
911	93.096				
912	93.112				
913	93.138				
914	93.127				
915	93.174				
916	93.191				
917	93.192				
918	93.186				
919	93.239				
920	93.252				
921	93.261				
922	93.241				
923	93.265				
924	93.269				
925	93.3				
926	93.29				
927	93.321				
928	93.286				
929	93.29				
930	93.28				
931	93.321				
932	93.3				
933	93.259				
934	93.247				
935	93.282				
936	93.251				
937	93.212				
938	93.192				
939	93.167				
940	93.142				
941	93.108				
942	93.107				
943	93.067				
944	93.055				
945	93.036				
946	92.977				
947	92.98				
948	92.953				
949	92.917				
950	92.899				
951	92.858				
952	92.844				
953	92.821				
954	92.831				
955	92.833				
956	92.799				
957	92.813				
958	92.805				
959	92.796				
960	92.819				
961	92.827				
962	92.822				
963	92.851				
964	92.861				
965	92.931				
966	92.935				
967	92.968				
968	93.003				
969	93.023				
970	93.06				
971	93.097				
972	93.127				
973	93.151				
974	93.18				
975	93.217				
976	93.249				
977	93.261				
978	93.265				
979	93.249				
980	93.264				
981	93.269				
982	93.231				
983	93.21				
984	93.185				
985	93.126				
986	93.052				
987	92.946				
988	92.896				
989	92.794				
990	92.639				
991	92.539				
992	92.384				
993	92.233				
994	92.07				
995	91.872				
996	91.671				
997	91.469				
998	91.244				
999	91.029				
1000	90.839				
