Wavelength	Transmittance	hex_color	Manufacturer	Name	Filter Number
300	89.03		Omega	UG5 Absorption Glass	W2675
301	89.075				
302	89.172				
303	89.031				
304	89.298				
305	89.152				
306	89.292				
307	89.232				
308	89.249				
309	89.404				
310	89.368				
311	89.325				
312	89.334				
313	89.365				
314	89.402				
315	89.389				
316	89.246				
317	89.535				
318	89.416				
319	89.356				
320	89.297				
321	89.474				
322	89.358				
323	89.383				
324	89.496				
325	89.542				
326	89.411				
327	89.241				
328	89.371				
329	89.506				
330	89.375				
331	89.454				
332	89.293				
333	89.566				
334	89.446				
335	89.431				
336	89.407				
337	89.433				
338	89.416				
339	89.325				
340	89.296				
341	89.399				
342	89.106				
343	89.312				
344	89.296				
345	89.261				
346	89.01				
347	89.371				
348	88.992				
349	89.695				
350	89.703				
351	89.672				
352	89.856				
353	89.72				
354	89.758				
355	89.296				
356	89.424				
357	89.448				
358	89.251				
359	89.38				
360	89.518				
361	89.65				
362	89.394				
363	88.898				
364	89.166				
365	88.7				
366	88.525				
367	88.275				
368	88.212				
369	88.018				
370	87.633				
371	87.633				
372	87.287				
373	86.974				
374	86.388				
375	86.086				
376	85.694				
377	85.079				
378	84.486				
379	84.206				
380	83.213				
381	82.717				
382	81.836				
383	81.04				
384	79.814				
385	78.738				
386	77.676				
387	76.173				
388	74.887				
389	73.33				
390	71.568				
391	69.958				
392	68.077				
393	66.13				
394	64.169				
395	62.131				
396	60.078				
397	57.916				
398	55.85				
399	53.409				
400	51.156				
401	48.863				
402	46.76				
403	44.288				
404	42.255				
405	40.057				
406	38.004				
407	36.053				
408	34.183				
409	32.295				
410	30.694				
411	28.993				
412	27.441				
413	26.06				
414	24.678				
415	23.474				
416	22.244				
417	21.202				
418	20.11				
419	19.124				
420	18.289				
421	17.473				
422	16.682				
423	16.017				
424	15.322				
425	14.748				
426	14.162				
427	13.668				
428	13.218				
429	12.808				
430	12.427				
431	12.165				
432	11.909				
433	11.685				
434	11.51				
435	11.375				
436	11.244				
437	11.178				
438	11.099				
439	11.05				
440	11.037				
441	11.033				
442	11.04				
443	11.065				
444	11.106				
445	11.145				
446	11.225				
447	11.301				
448	11.392				
449	11.489				
450	11.59				
451	11.667				
452	11.78				
453	11.864				
454	11.927				
455	12.011				
456	12.066				
457	12.096				
458	12.142				
459	12.114				
460	12.154				
461	12.107				
462	12.086				
463	12.049				
464	11.977				
465	11.902				
466	11.834				
467	11.699				
468	11.587				
469	11.461				
470	11.28				
471	11.151				
472	10.93				
473	10.843				
474	10.63				
475	10.536				
476	10.397				
477	10.269				
478	10.162				
479	10.072				
480	9.977				
481	9.855				
482	9.731				
483	9.618				
484	9.469				
485	9.305				
486	9.165				
487	9.024				
488	8.861				
489	8.7				
490	8.51				
491	8.361				
492	8.199				
493	7.981				
494	7.771				
495	7.519				
496	7.269				
497	7.007				
498	6.744				
499	6.474				
500	6.227				
501	5.985				
502	5.772				
503	5.563				
504	5.382				
505	5.205				
506	5.033				
507	4.846				
508	4.682				
509	4.498				
510	4.321				
511	4.127				
512	3.941				
513	3.767				
514	3.563				
515	3.38				
516	3.209				
517	3.053				
518	2.881				
519	2.732				
520	2.588				
521	2.449				
522	2.324				
523	2.211				
524	2.117				
525	2.019				
526	1.935				
527	1.874				
528	1.81				
529	1.77				
530	1.717				
531	1.684				
532	1.651				
533	1.625				
534	1.612				
535	1.591				
536	1.584				
537	1.582				
538	1.575				
539	1.579				
540	1.583				
541	1.589				
542	1.603				
543	1.613				
544	1.634				
545	1.635				
546	1.655				
547	1.66				
548	1.649				
549	1.641				
550	1.627				
551	1.593				
552	1.572				
553	1.527				
554	1.488				
555	1.438				
556	1.392				
557	1.335				
558	1.288				
559	1.227				
560	1.163				
561	1.091				
562	1.028				
563	0.956				
564	0.891				
565	0.826				
566	0.754				
567	0.688				
568	0.626				
569	0.571				
570	0.516				
571	0.479				
572	0.433				
573	0.402				
574	0.371				
575	0.348				
576	0.334				
577	0.325				
578	0.31				
579	0.313				
580	0.304				
581	0.31				
582	0.312				
583	0.311				
584	0.317				
585	0.315				
586	0.33				
587	0.334				
588	0.338				
589	0.343				
590	0.353				
591	0.356				
592	0.374				
593	0.389				
594	0.393				
595	0.406				
596	0.428				
597	0.435				
598	0.452				
599	0.47				
600	0.487				
601	0.511				
602	0.521				
603	0.533				
604	0.551				
605	0.568				
606	0.582				
607	0.599				
608	0.607				
609	0.618				
610	0.623				
611	0.641				
612	0.64				
613	0.653				
614	0.655				
615	0.662				
616	0.669				
617	0.67				
618	0.673				
619	0.682				
620	0.68				
621	0.693				
622	0.707				
623	0.719				
624	0.731				
625	0.753				
626	0.771				
627	0.798				
628	0.829				
629	0.867				
630	0.908				
631	0.963				
632	1.022				
633	1.085				
634	1.165				
635	1.256				
636	1.351				
637	1.465				
638	1.604				
639	1.738				
640	1.913				
641	2.094				
642	2.312				
643	2.548				
644	2.83				
645	3.127				
646	3.452				
647	3.841				
648	4.26				
649	4.73				
650	5.263				
651	5.838				
652	6.467				
653	7.183				
654	7.956				
655	8.822				
656	9.729				
657	10.741				
658	11.834				
659	12.976				
660	14.235				
661	15.558				
662	16.942				
663	18.485				
664	20.029				
665	21.604				
666	23.34				
667	25.111				
668	26.892				
669	28.677				
670	30.53				
671	32.435				
672	34.25				
673	36.124				
674	38.058				
675	39.781				
676	41.642				
677	43.413				
678	45.262				
679	46.935				
680	48.621				
681	50.283				
682	51.87				
683	53.265				
684	54.841				
685	56.357				
686	57.752				
687	59.064				
688	60.254				
689	61.605				
690	62.689				
691	63.78				
692	64.951				
693	66.047				
694	66.946				
695	67.625				
696	68.552				
697	69.425				
698	69.887				
699	70.343				
700	71.059				
701	71.357				
702	71.695				
703	72.346				
704	72.774				
705	73.365				
706	73.423				
707	73.936				
708	74.163				
709	74.453				
710	74.685				
711	75.048				
712	75.155				
713	75.378				
714	75.27				
715	75.515				
716	75.529				
717	75.472				
718	75.739				
719	75.804				
720	75.728				
721	75.658				
722	75.667				
723	75.626				
724	75.614				
725	75.081				
726	75.202				
727	74.822				
728	74.659				
729	74.473				
730	74.31				
731	74.274				
732	74.154				
733	73.784				
734	74.099				
735	73.559				
736	73.266				
737	73.226				
738	72.815				
739	72.607				
740	72.331				
741	72.186				
742	72.028				
743	71.597				
744	71.44				
745	71.335				
746	70.98				
747	70.807				
748	70.581				
749	70.498				
750	70.086				
751	69.906				
752	69.583				
753	69.14				
754	68.989				
755	68.756				
756	68.552				
757	68.552				
758	67.943				
759	67.695				
760	67.641				
761	67.201				
762	66.78				
763	66.775				
764	66.51				
765	66.233				
766	65.942				
767	65.744				
768	65.372				
769	65.111				
770	64.894				
771	64.865				
772	64.678				
773	64.181				
774	64.341				
775	63.793				
776	63.778				
777	63.445				
778	63.325				
779	63.18				
780	63.021				
781	62.716				
782	62.772				
783	62.459				
784	62.18				
785	61.91				
786	61.895				
787	61.528				
788	61.317				
789	61.098				
790	61.152				
791	60.752				
792	60.686				
793	60.425				
794	60.489				
795	60.125				
796	59.862				
797	59.723				
798	59.668				
799	59.631				
800	59.358				
