Wavelength	Transmittance	hex_color	Manufacturer	Name	Filter Number
300	0.0		Omega	635DCSP Dichroic	W3534
301	0.0				
302	0.0				
303	0.0				
304	0.0				
305	0.0				
306	0.0				
307	0.0				
308	0.0				
309	0.0				
310	0.0				
311	0.0				
312	0.0				
313	0.0				
314	0.0				
315	0.0				
316	0.0				
317	0.0				
318	0.0				
319	0.0				
320	0.0				
321	0.0				
322	0.0				
323	0.0				
324	0.0				
325	0.0				
326	0.0				
327	0.011				
328	0.0				
329	0.039				
330	0.0				
331	0.0				
332	0.2				
333	0.297				
334	0.378				
335	0.588				
336	1.1				
337	1.283				
338	1.889				
339	2.53				
340	3.26				
341	4.258				
342	5.33				
343	6.619				
344	7.896				
345	9.53				
346	10.985				
347	12.7				
348	14.77				
349	16.61				
350	18.973				
351	20.943				
352	23.08				
353	24.833				
354	26.673				
355	28.946				
356	31.164				
357	32.97				
358	34.288				
359	35.572				
360	37.272				
361	39.478				
362	41.672				
363	42.87				
364	44.101				
365	45.139				
366	46.44				
367	48.11				
368	49.46				
369	49.773				
370	48.385				
371	46.23				
372	42.366				
373	38.254				
374	35.394				
375	32.271				
376	30.173				
377	28.129				
378	26.411				
379	24.435				
380	22.345				
381	19.438				
382	16.789				
383	14.414				
384	12.141				
385	10.635				
386	9.081				
387	8.101				
388	7.272				
389	6.893				
390	6.798				
391	6.916				
392	7.4				
393	8.287				
394	10.126				
395	11.86				
396	15.561				
397	20.034				
398	27.904				
399	36.177				
400	44.103				
401	49.26				
402	51.949				
403	51.576				
404	49.498				
405	47.34				
406	46.776				
407	47.912				
408	51.031				
409	56.762				
410	62.609				
411	70.119				
412	76.276				
413	82.826				
414	86.461				
415	87.158				
416	86.191				
417	84.19				
418	82.967				
419	82.514				
420	83.506				
421	85.82				
422	87.977				
423	90.716				
424	92.855				
425	93.754				
426	93.318				
427	92.365				
428	90.95				
429	89.558				
430	88.521				
431	88.448				
432	88.963				
433	90.13				
434	91.737				
435	93.576				
436	95.166				
437	95.99				
438	96.13				
439	95.902				
440	95.081				
441	94.171				
442	93.113				
443	92.758				
444	92.236				
445	92.356				
446	93.098				
447	93.951				
448	94.946				
449	95.748				
450	96.42				
451	96.93				
452	96.88				
453	96.414				
454	96.124				
455	95.541				
456	94.992				
457	94.59				
458	94.61				
459	94.692				
460	94.943				
461	95.501				
462	95.824				
463	96.385				
464	96.809				
465	97.003				
466	97.008				
467	96.876				
468	96.64				
469	96.417				
470	96.098				
471	95.93				
472	95.924				
473	95.789				
474	95.748				
475	96.015				
476	96.3				
477	96.472				
478	96.675				
479	96.996				
480	97.093				
481	97.104				
482	97.015				
483	96.916				
484	96.684				
485	96.631				
486	96.407				
487	96.38				
488	96.363				
489	96.383				
490	96.434				
491	96.603				
492	96.897				
493	96.98				
494	96.974				
495	97.232				
496	97.21				
497	97.073				
498	97.156				
499	96.959				
500	96.942				
501	96.815				
502	96.824				
503	96.655				
504	96.682				
505	96.782				
506	96.9				
507	97.142				
508	97.171				
509	97.362				
510	97.452				
511	97.417				
512	97.495				
513	97.578				
514	97.476				
515	97.244				
516	97.096				
517	96.954				
518	96.783				
519	96.756				
520	96.654				
521	96.673				
522	96.748				
523	96.921				
524	96.918				
525	97.25				
526	97.428				
527	97.58				
528	97.804				
529	97.796				
530	97.918				
531	97.93				
532	97.783				
533	97.604				
534	97.368				
535	97.337				
536	97.106				
537	96.866				
538	96.718				
539	96.528				
540	96.549				
541	96.683				
542	96.603				
543	96.751				
544	97.027				
545	97.132				
546	97.349				
547	97.646				
548	97.729				
549	97.953				
550	97.972				
551	98.048				
552	98.127				
553	97.819				
554	97.764				
555	97.419				
556	97.304				
557	97.018				
558	96.835				
559	96.533				
560	96.505				
561	96.492				
562	96.396				
563	96.414				
564	96.429				
565	96.627				
566	96.948				
567	97.186				
568	97.225				
569	97.524				
570	97.702				
571	97.734				
572	97.768				
573	97.681				
574	97.78				
575	97.61				
576	97.415				
577	97.309				
578	97.203				
579	96.923				
580	96.595				
581	96.493				
582	96.29				
583	96.312				
584	96.256				
585	96.111				
586	96.257				
587	96.214				
588	96.332				
589	96.443				
590	96.638				
591	96.683				
592	96.601				
593	96.572				
594	96.988				
595	96.917				
596	97.09				
597	96.98				
598	97.117				
599	97.1				
600	96.834				
601	96.846				
602	96.335				
603	95.552				
604	94.588				
605	92.914				
606	90.764				
607	88.375				
608	85.988				
609	82.571				
610	79.243				
611	76.038				
612	73.033				
613	70.047				
614	67.358				
615	65.378				
616	63.334				
617	62.113				
618	60.7				
619	59.036				
620	58.107				
621	56.912				
622	55.921				
623	54.504				
624	53.027				
625	51.21				
626	49.224				
627	47.496				
628	45.697				
629	43.357				
630	41.165				
631	38.886				
632	36.74				
633	34.826				
634	32.944				
635	31.475				
636	29.81				
637	28.438				
638	27.467				
639	26.369				
640	25.235				
641	24.062				
642	22.895				
643	21.411				
644	20.02				
645	18.023				
646	15.853				
647	13.734				
648	11.502				
649	9.632				
650	7.992				
651	6.398				
652	5.29				
653	3.902				
654	3.172				
655	2.387				
656	1.815				
657	1.412				
658	1.289				
659	0.953				
660	0.663				
661	0.585				
662	0.496				
663	0.411				
664	0.156				
665	0.394				
666	0.222				
667	0.038				
668	0.0				
669	0.164				
670	0.0				
671	0.099				
672	0.038				
673	0.0				
674	0.0				
675	0.044				
676	0.0				
677	0.0				
678	0.0				
679	0.0				
680	0.0				
681	0.0				
682	0.009				
683	0.0				
684	0.0				
685	0.0				
686	0.0				
687	0.0				
688	0.0				
689	0.0				
690	0.0				
691	0.0				
692	0.009				
693	0.0				
694	0.031				
695	0.0				
696	0.082				
697	0.0				
698	0.092				
699	0.0				
700	0.011				
701	0.0				
702	0.065				
703	0.0				
704	0.0				
705	0.0				
706	0.0				
707	0.0				
708	0.0				
709	0.097				
710	0.0				
711	0.064				
712	0.0				
713	0.021				
714	0.0				
715	0.0				
716	0.0				
717	0.0				
718	0.0				
719	0.0				
720	0.0				
721	0.0				
722	0.09				
723	0.0				
724	0.0				
725	0.0				
726	0.005				
727	0.06				
728	0.0				
729	0.05				
730	0.0				
731	0.0				
732	0.0				
733	0.0				
734	0.0				
735	0.0				
736	0.008				
737	0.0				
738	0.0				
739	0.0				
740	0.106				
741	0.0				
742	0.0				
743	0.0				
744	0.163				
745	0.0				
746	0.241				
747	0.0				
748	0.152				
749	0.0				
750	0.093				
751	0.0				
752	0.009				
753	0.0				
754	0.0				
755	0.0				
756	0.0				
757	0.009				
758	0.0				
759	0.0				
760	0.0				
761	0.192				
762	0.136				
763	0.063				
764	0.0				
765	0.176				
766	0.042				
767	0.0				
768	0.0				
769	0.145				
770	0.0				
771	0.0				
772	0.0				
773	0.106				
774	0.0				
775	0.168				
776	0.0				
777	0.263				
778	0.0				
779	0.0				
780	0.0				
781	0.0				
782	0.123				
783	0.0				
784	0.0				
785	0.0				
786	0.0				
787	0.0				
788	0.274				
789	0.111				
790	0.0				
791	0.0				
792	0.0				
793	0.009				
794	0.0				
795	0.0				
796	0.137				
797	0.0				
798	0.0				
799	0.359				
800	0.0				
801	0.154				
802	0.0				
803	0.098				
804	0.117				
805	0.186				
806	0.256				
807	0.577				
808	0.738				
809	1.265				
810	1.154				
811	2.283				
812	3.043				
813	4.886				
814	6.663				
815	9.21				
816	12.064				
817	15.246				
818	17.664				
819	19.435				
820	20.825				
821	21.824				
822	22.293				
823	22.519				
824	21.844				
825	20.809				
826	19.318				
827	17.353				
828	13.979				
829	11.855				
830	10.404				
831	8.088				
832	7.177				
833	6.712				
834	5.822				
835	5.213				
836	5.08				
837	5.313				
838	4.698				
839	4.955				
840	4.647				
841	4.856				
842	4.787				
843	5.339				
844	5.155				
845	5.69				
846	5.614				
847	6.16				
848	6.375				
849	6.694				
850	7.31				
