Wavelength	Transmittance	hex_color	Manufacturer	Name	Filter Number
351	0.0		Omega	390-510-630TBDR Triple Band	XF2056/25.7*36
352	0.0				
353	0.0				
354	0.0				
355	0.0				
356	0.0				
357	0.0				
358	0.0				
359	0.0				
360	0.0				
361	0.0				
362	0.0				
363	0.0				
364	0.0				
365	0.0				
366	0.0				
367	0.0				
368	0.0				
369	0.0				
370	0.0				
371	0.0				
372	0.0				
373	0.0				
374	0.0				
375	0.0				
376	0.0				
377	0.0				
378	0.012				
379	0.0				
380	0.0				
381	0.0				
382	0.0				
383	0.0				
384	0.0				
385	0.0				
386	0.0				
387	0.0				
388	0.0				
389	0.0				
390	0.0				
391	0.051				
392	0.129				
393	0.219				
394	0.319				
395	0.362				
396	0.466				
397	0.531				
398	0.567				
399	0.705				
400	0.74				
401	0.955				
402	1.068				
403	1.222				
404	1.431				
405	1.684				
406	1.86				
407	2.205				
408	2.539				
409	3.111				
410	3.63				
411	4.264				
412	4.845				
413	5.72				
414	6.859				
415	8.375				
416	9.78				
417	11.709				
418	13.597				
419	16.248				
420	19.277				
421	23.034				
422	26.125				
423	30.48				
424	33.818				
425	37.059				
426	39.1				
427	40.539				
428	41.655				
429	43.157				
430	44.778				
431	46.489				
432	47.243				
433	47.051				
434	45.844				
435	44.368				
436	43.045				
437	42.944				
438	44.104				
439	46.605				
440	51.539				
441	57.923				
442	64.875				
443	69.522				
444	72.254				
445	71.66				
446	68.372				
447	64.502				
448	61.759				
449	61.142				
450	62.476				
451	64.984				
452	69.102				
453	72.881				
454	74.617				
455	74.791				
456	73.606				
457	71.181				
458	68.863				
459	67.62				
460	67.808				
461	69.593				
462	72.49				
463	77.612				
464	82.572				
465	85.506				
466	87.023				
467	86.94				
468	85.407				
469	82.936				
470	80.955				
471	79.904				
472	79.611				
473	80.72				
474	82.647				
475	85.003				
476	86.272				
477	86.755				
478	86.073				
479	84.075				
480	80.858				
481	77.915				
482	75.173				
483	73.311				
484	72.066				
485	72.027				
486	73.262				
487	75.458				
488	76.935				
489	78.182				
490	78.215				
491	75.663				
492	70.719				
493	65.784				
494	57.591				
495	49.424				
496	40.042				
497	30.958				
498	25.031				
499	19.634				
500	16.379				
501	13.24				
502	10.949				
503	9.375				
504	8.303				
505	7.642				
506	7.057				
507	6.661				
508	6.498				
509	6.502				
510	6.672				
511	6.871				
512	7.417				
513	8.018				
514	9.021				
515	10.536				
516	11.976				
517	14.251				
518	16.969				
519	20.512				
520	25.47				
521	30.865				
522	38.232				
523	46.271				
524	54.144				
525	64.109				
526	72.871				
527	79.257				
528	82.951				
529	83.514				
530	82.494				
531	80.479				
532	78.655				
533	77.662				
534	77.262				
535	77.45				
536	78.018				
537	78.802				
538	79.678				
539	80.476				
540	81.022				
541	81.47				
542	81.837				
543	82.173				
544	82.422				
545	82.655				
546	82.881				
547	83.194				
548	83.47				
549	83.691				
550	83.785				
551	83.952				
552	83.83				
553	83.86				
554	83.591				
555	83.364				
556	83.223				
557	83.116				
558	83.38				
559	83.409				
560	83.59				
561	83.756				
562	83.817				
563	83.805				
564	83.454				
565	82.99				
566	82.127				
567	81.183				
568	79.876				
569	78.908				
570	78.189				
571	77.726				
572	77.34				
573	77.664				
574	78.279				
575	79.502				
576	80.893				
577	82.088				
578	83.722				
579	84.91				
580	85.956				
581	85.45				
582	84.547				
583	83.016				
584	80.397				
585	77.608				
586	74.677				
587	72.422				
588	70.664				
589	70.012				
590	70.267				
591	71.179				
592	73.166				
593	75.59				
594	76.642				
595	76.247				
596	74.105				
597	70.158				
598	65.723				
599	59.394				
600	52.453				
601	46.069				
602	39.228				
603	34.085				
604	28.047				
605	22.652				
606	18.141				
607	14.727				
608	11.97				
609	9.647				
610	7.895				
611	6.832				
612	5.54				
613	4.938				
614	4.293				
615	3.777				
616	3.392				
617	3.107				
618	2.857				
619	2.638				
620	2.492				
621	2.488				
622	2.36				
623	2.077				
624	2.224				
625	2.127				
626	2.203				
627	2.137				
628	2.21				
629	2.299				
630	2.376				
631	2.562				
632	2.715				
633	2.948				
634	3.148				
635	3.231				
636	3.767				
637	4.038				
638	4.695				
639	5.428				
640	6.103				
641	7.288				
642	8.273				
643	9.702				
644	11.808				
645	13.834				
646	17.15				
647	20.975				
648	25.214				
649	29.043				
650	34.071				
651	39.782				
652	45.528				
653	51.955				
654	58.459				
655	64.818				
656	68.445				
657	73.086				
658	75.806				
659	76.755				
660	75.773				
661	73.456				
662	70.988				
663	68.123				
664	66.826				
665	65.065				
666	64.683				
667	64.695				
668	65.227				
669	66.566				
670	68.148				
671	69.992				
672	72.027				
673	74.043				
674	76.377				
675	78.676				
676	80.51				
677	81.807				
678	82.782				
679	83.358				
680	83.351				
681	83.203				
682	82.694				
683	81.836				
684	81.158				
685	80.56				
686	79.661				
687	79.158				
688	78.595				
689	78.333				
690	78.296				
691	78.324				
692	78.466				
693	79.146				
694	79.66				
695	80.3				
696	81.127				
697	81.866				
698	82.65				
699	83.088				
700	83.787				
701	84.14				
702	84.41				
703	84.452				
704	84.245				
705	84.148				
706	83.794				
707	83.414				
708	83.086				
709	82.404				
710	82.18				
711	81.53				
712	81.141				
713	80.858				
714	80.62				
715	80.728				
716	80.64				
717	80.974				
718	81.407				
719	81.586				
720	82.373				
721	82.799				
722	83.556				
723	84.256				
724	84.634				
725	85.682				
726	86.178				
727	87.052				
728	87.565				
729	88.094				
730	88.194				
731	88.722				
732	88.793				
733	88.894				
734	88.688				
735	88.954				
736	88.71				
737	88.34				
738	88.03				
739	87.888				
740	87.651				
741	87.239				
742	86.922				
743	86.809				
744	86.985				
745	86.661				
746	86.801				
747	86.798				
748	86.978				
749	87.219				
750	87.429				
