Wavelength	Transmittance	hex_color	Manufacturer	Name	Filter Number
300	0.0		Omega	530ALP Longpass	XF3082/25
301	0.0				
302	0.001				
303	0.0				
304	0.0				
305	0.001				
306	0.0				
307	0.0				
308	0.002				
309	0.002				
310	0.0				
311	0.001				
312	0.0				
313	0.0				
314	0.0				
315	0.0				
316	0.0				
317	0.0				
318	0.0				
319	0.0				
320	0.001				
321	0.002				
322	0.0				
323	0.001				
324	0.0				
325	0.0				
326	0.0				
327	0.0				
328	0.0				
329	0.0				
330	0.002				
331	0.0				
332	0.0				
333	0.0				
334	0.001				
335	0.0				
336	0.0				
337	0.0				
338	0.001				
339	0.0				
340	0.0				
341	0.003				
342	0.0				
343	0.0				
344	0.002				
345	0.0				
346	0.0				
347	0.0				
348	0.0				
349	0.0				
350	0.001				
351	0.0				
352	0.0				
353	0.002				
354	0.0				
355	0.001				
356	0.001				
357	0.002				
358	0.001				
359	0.005				
360	0.006				
361	0.006				
362	0.007				
363	0.01				
364	0.011				
365	0.015				
366	0.014				
367	0.017				
368	0.019				
369	0.018				
370	0.018				
371	0.012				
372	0.009				
373	0.008				
374	0.003				
375	0.001				
376	0.001				
377	0.0				
378	0.002				
379	0.0				
380	0.0				
381	0.0				
382	0.0				
383	0.0				
384	0.0				
385	0.0				
386	0.0				
387	0.0				
388	0.0				
389	0.0				
390	0.0				
391	0.0				
392	0.001				
393	0.0				
394	0.0				
395	0.0				
396	0.0				
397	0.0				
398	0.0				
399	0.0				
400	0.0				
401	0.002				
402	0.001				
403	0.001				
404	0.0				
405	0.0				
406	0.0				
407	0.0				
408	0.0				
409	0.0				
410	0.0				
411	0.002				
412	0.0				
413	0.0				
414	0.0				
415	0.0				
416	0.0				
417	0.0				
418	0.0				
419	0.0				
420	0.001				
421	0.0				
422	0.0				
423	0.0				
424	0.0				
425	0.0				
426	0.0				
427	0.0				
428	0.001				
429	0.0				
430	0.0				
431	0.001				
432	0.001				
433	0.0				
434	0.002				
435	0.0				
436	0.0				
437	0.0				
438	0.0				
439	0.0				
440	0.0				
441	0.001				
442	0.0				
443	0.001				
444	0.0				
445	0.0				
446	0.0				
447	0.002				
448	0.0				
449	0.001				
450	0.0				
451	0.0				
452	0.0				
453	0.0				
454	0.0				
455	0.001				
456	0.002				
457	0.0				
458	0.0				
459	0.001				
460	0.0				
461	0.0				
462	0.0				
463	0.0				
464	0.002				
465	0.001				
466	0.0				
467	0.0				
468	0.0				
469	0.0				
470	0.0				
471	0.0				
472	0.001				
473	0.001				
474	0.0				
475	0.0				
476	0.0				
477	0.002				
478	0.001				
479	0.002				
480	0.0				
481	0.0				
482	0.0				
483	0.0				
484	0.001				
485	0.0				
486	0.007				
487	0.0				
488	0.0				
489	0.0				
490	0.0				
491	0.0				
492	0.0				
493	0.0				
494	0.0				
495	0.003				
496	0.0				
497	0.0				
498	0.0				
499	0.0				
500	0.0				
501	0.0				
502	0.002				
503	0.0				
504	0.0				
505	0.0				
506	0.0				
507	0.0				
508	0.0				
509	0.002				
510	0.0				
511	0.0				
512	0.0				
513	0.0				
514	0.0				
515	0.0				
516	0.0				
517	0.001				
518	0.002				
519	0.001				
520	0.001				
521	0.0				
522	0.0				
523	0.0				
524	0.002				
525	0.002				
526	0.008				
527	0.04				
528	0.217				
529	1.366				
530	8.491				
531	36.68				
532	74.187				
533	86.637				
534	84.636				
535	82.097				
536	82.191				
537	83.848				
538	85.062				
539	84.913				
540	83.557				
541	81.785				
542	80.333				
543	79.591				
544	79.739				
545	80.666				
546	82.174				
547	83.955				
548	85.66				
549	87.103				
550	87.988				
551	88.271				
552	88.048				
553	87.425				
554	86.576				
555	85.836				
556	85.217				
557	84.974				
558	85.093				
559	85.555				
560	86.241				
561	86.958				
562	87.604				
563	88.027				
564	88.073				
565	87.835				
566	87.34				
567	86.633				
568	85.936				
569	85.298				
570	84.836				
571	84.633				
572	84.593				
573	84.798				
574	85.153				
575	85.647				
576	86.223				
577	86.802				
578	87.441				
579	88.002				
580	88.544				
581	88.983				
582	89.296				
583	89.443				
584	89.438				
585	89.267				
586	88.987				
587	88.6				
588	88.064				
589	87.543				
590	87.048				
591	86.655				
592	86.383				
593	86.232				
594	86.192				
595	86.38				
596	86.614				
597	86.91				
598	87.268				
599	87.655				
600	87.99				
601	88.276				
602	88.507				
603	88.676				
604	88.733				
605	88.741				
606	88.67				
607	88.607				
608	88.441				
609	88.312				
610	88.159				
611	88.032				
612	87.881				
613	87.831				
614	87.695				
615	87.663				
616	87.698				
617	87.733				
618	87.898				
619	88.002				
620	88.191				
621	88.354				
622	88.521				
623	88.657				
624	88.726				
625	88.749				
626	88.727				
627	88.63				
628	88.494				
629	88.318				
630	88.101				
631	87.909				
632	87.756				
633	87.568				
634	87.489				
635	87.399				
636	87.34				
637	87.333				
638	87.321				
639	87.276				
640	87.222				
641	87.138				
642	86.98				
643	86.886				
644	86.673				
645	86.519				
646	86.325				
647	86.184				
648	86.098				
649	86.069				
650	86.137				
651	86.27				
652	86.471				
653	86.745				
654	87.033				
655	87.376				
656	87.688				
657	87.952				
658	88.152				
659	88.212				
660	88.166				
661	88.031				
662	87.795				
663	87.384				
664	87.019				
665	86.548				
666	86.096				
667	85.742				
668	85.435				
669	85.224				
670	85.158				
671	85.164				
672	85.311				
673	85.598				
674	85.913				
675	86.286				
676	86.726				
677	87.111				
678	87.429				
679	87.666				
680	87.809				
681	87.867				
682	87.702				
683	87.47				
684	87.136				
685	86.693				
686	86.186				
687	85.723				
688	85.208				
689	84.789				
690	84.459				
691	84.254				
692	84.158				
693	84.124				
694	84.273				
695	84.503				
696	84.817				
697	85.214				
698	85.611				
699	85.979				
700	86.401				
701	86.707				
702	86.923				
703	87.108				
704	87.134				
705	87.059				
706	86.867				
707	86.608				
708	86.253				
709	85.842				
710	85.458				
711	85.031				
712	84.662				
713	84.384				
714	84.086				
715	83.933				
716	83.829				
717	83.84				
718	83.918				
719	84.076				
720	84.27				
721	84.548				
722	84.836				
723	85.118				
724	85.372				
725	85.684				
726	85.865				
727	86.008				
728	86.162				
729	86.164				
730	86.166				
731	86.076				
732	85.968				
733	85.829				
734	85.689				
735	85.49				
736	85.316				
737	85.236				
738	85.088				
739	85.07				
740	85.024				
741	85.053				
742	85.142				
743	85.208				
744	85.346				
745	85.456				
746	85.59				
747	85.704				
748	85.82				
749	85.901				
750	85.95				
751	85.957				
752	85.886				
753	85.806				
754	85.645				
755	85.478				
756	85.255				
757	85.013				
758	84.753				
759	84.48				
760	84.218				
761	83.984				
762	83.739				
763	83.527				
764	83.423				
765	83.283				
766	83.259				
767	83.218				
768	83.261				
769	83.343				
770	83.504				
771	83.636				
772	83.829				
773	84.018				
774	84.172				
775	84.364				
776	84.474				
777	84.545				
778	84.628				
779	84.626				
780	84.603				
781	84.544				
782	84.462				
783	84.265				
784	84.126				
785	83.922				
786	83.65				
787	83.49				
788	83.274				
789	83.043				
790	82.866				
791	82.7				
792	82.59				
793	82.546				
794	82.508				
795	82.484				
796	82.552				
797	82.633				
798	82.766				
799	82.919				
800	83.146				
801	83.32				
802	83.477				
803	83.708				
804	83.943				
805	84.079				
806	84.214				
807	84.343				
808	84.452				
809	84.498				
810	84.481				
811	84.454				
812	84.342				
813	84.229				
814	84.105				
815	83.941				
816	83.692				
817	83.471				
818	83.259				
819	83.091				
820	82.863				
821	82.749				
822	82.609				
823	82.431				
824	82.406				
825	82.333				
826	82.327				
827	82.39				
828	82.384				
829	82.486				
830	82.533				
831	82.662				
832	82.921				
833	82.969				
834	83.124				
835	83.27				
836	83.438				
837	83.529				
838	83.575				
839	83.618				
840	83.694				
841	83.686				
842	83.619				
843	83.513				
844	83.367				
845	83.087				
846	82.874				
847	82.644				
848	82.398				
849	82.05				
850	81.832				
