Wavelength	Transmittance	hex_color	Manufacturer	Name	Filter Number
700	0.0		Omega	800AGLP Longpass	W4418
701	0.001				
702	0.0				
703	0.0				
704	0.0				
705	0.001				
706	0.001				
707	0.001				
708	0.0				
709	0.0				
710	0.001				
711	0.001				
712	0.0				
713	0.001				
714	0.001				
715	0.0				
716	0.0				
717	0.0				
718	0.0				
719	0.0				
720	0.001				
721	0.0				
722	0.001				
723	0.001				
724	0.0				
725	0.0				
726	0.001				
727	0.0				
728	0.001				
729	0.001				
730	0.001				
731	0.0				
732	0.0				
733	0.0				
734	0.0				
735	0.001				
736	0.0				
737	0.0				
738	0.0				
739	0.001				
740	0.001				
741	0.0				
742	0.001				
743	0.0				
744	0.001				
745	0.001				
746	0.0				
747	0.0				
748	0.0				
749	0.0				
750	0.0				
751	0.0				
752	0.0				
753	0.0				
754	0.0				
755	0.001				
756	0.0				
757	0.0				
758	0.001				
759	0.0				
760	0.0				
761	0.001				
762	0.001				
763	0.001				
764	0.0				
765	0.0				
766	0.0				
767	0.0				
768	0.001				
769	0.0				
770	0.001				
771	0.001				
772	0.001				
773	0.0				
774	0.001				
775	0.001				
776	0.001				
777	0.002				
778	0.002				
779	0.003				
780	0.004				
781	0.006				
782	0.008				
783	0.012				
784	0.017				
785	0.025				
786	0.043				
787	0.067				
788	0.112				
789	0.191				
790	0.333				
791	0.593				
792	1.085				
793	2.069				
794	4.048				
795	8.062				
796	16.103				
797	30.754				
798	51.262				
799	70.228				
800	81.313				
801	84.681				
802	85.161				
803	85.125				
804	85.275				
805	86.365				
806	87.338				
807	88.066				
808	88.446				
809	89.082				
810	88.943				
811	88.778				
812	89.045				
813	88.775				
814	88.53				
815	88.752				
816	88.635				
817	88.84				
818	88.899				
819	88.68				
820	89.026				
821	89.085				
822	89.135				
823	88.861				
824	89.02				
825	88.808				
826	88.692				
827	88.665				
828	88.488				
829	88.501				
830	88.178				
831	87.899				
832	87.751				
833	87.721				
834	87.696				
835	87.501				
836	87.628				
837	87.488				
838	87.624				
839	88.003				
840	88.007				
841	88.254				
842	88.761				
843	88.814				
844	88.803				
845	89.347				
846	89.6				
847	89.724				
848	89.656				
849	90.042				
850	89.687				
851	89.898				
852	89.936				
853	89.738				
854	89.798				
855	89.537				
856	89.568				
857	89.831				
858	89.198				
859	89.06				
860	89.421				
861	89.062				
862	88.857				
863	88.757				
864	88.785				
865	88.623				
866	88.932				
867	88.682				
868	88.487				
869	88.423				
870	88.636				
871	88.614				
872	88.382				
873	88.058				
874	89.352				
875	89.197				
876	88.693				
877	88.802				
878	88.929				
879	88.751				
880	89.759				
881	88.933				
882	89.671				
883	89.785				
884	89.556				
885	89.695				
886	89.576				
887	89.641				
888	90.732				
889	89.851				
890	89.805				
891	89.806				
892	89.82				
893	89.765				
894	89.767				
895	89.689				
896	89.631				
897	89.547				
898	89.423				
899	89.358				
900	89.203				
901	89.112				
902	89.0				
903	88.848				
904	88.74				
905	88.646				
906	88.508				
907	88.418				
908	88.332				
909	88.255				
910	88.149				
911	88.19				
912	88.113				
913	88.136				
914	88.119				
915	88.194				
916	88.211				
917	88.313				
918	88.373				
919	88.464				
920	88.567				
921	88.685				
922	88.767				
923	88.891				
924	89.002				
925	89.103				
926	89.185				
927	89.294				
928	89.361				
929	89.423				
930	89.459				
931	89.497				
932	89.49				
933	89.521				
934	89.461				
935	89.394				
936	89.368				
937	89.248				
938	89.187				
939	89.042				
940	88.896				
941	88.841				
942	88.705				
943	88.527				
944	88.374				
945	88.221				
946	88.058				
947	87.868				
948	87.825				
949	87.557				
950	87.537				
951	87.408				
952	87.337				
953	87.183				
954	87.114				
955	87.018				
956	86.998				
957	86.968				
958	86.933				
959	87.038				
960	87.074				
961	86.979				
962	87.043				
963	87.026				
964	87.157				
965	87.261				
966	87.269				
967	87.385				
968	87.486				
969	87.574				
970	87.676				
971	87.793				
972	87.906				
973	87.999				
974	88.087				
975	88.241				
976	88.338				
977	88.447				
978	88.556				
979	88.654				
980	88.753				
981	88.831				
982	88.923				
983	88.979				
984	89.042				
985	89.092				
986	89.148				
987	89.156				
988	89.196				
989	89.199				
990	89.226				
991	89.204				
992	89.169				
993	89.112				
994	89.083				
995	89.085				
996	88.916				
997	88.895				
998	88.89				
999	88.748				
1000	88.635				
1001	88.614				
1002	88.527				
1003	88.492				
1004	88.341				
1005	88.345				
1006	88.238				
1007	88.154				
1008	88.088				
1009	88.02				
1010	87.987				
1011	87.926				
1012	87.916				
1013	87.882				
1014	87.855				
1015	87.861				
1016	87.862				
1017	87.87				
1018	87.884				
1019	87.9				
1020	87.938				
1021	87.969				
1022	87.996				
1023	88.058				
1024	88.084				
1025	88.135				
1026	88.163				
1027	88.213				
1028	88.255				
1029	88.283				
1030	88.323				
1031	88.334				
1032	88.354				
1033	88.35				
1034	88.372				
1035	88.33				
1036	88.331				
1037	88.287				
1038	88.271				
1039	88.171				
1040	88.122				
1041	88.049				
1042	87.968				
1043	87.853				
1044	87.779				
1045	87.618				
1046	87.532				
1047	87.361				
1048	87.253				
1049	87.113				
1050	86.983				
1051	86.851				
1052	86.696				
1053	86.563				
1054	86.449				
1055	86.319				
1056	86.201				
1057	86.103				
1058	85.991				
1059	85.914				
1060	85.862				
1061	85.804				
1062	85.765				
1063	85.753				
1064	85.749				
1065	85.76				
1066	85.78				
1067	85.829				
1068	85.886				
1069	85.994				
1070	86.061				
1071	86.215				
1072	86.286				
1073	86.451				
1074	86.62				
1075	86.776				
1076	86.918				
1077	87.133				
1078	87.292				
1079	87.478				
1080	87.675				
1081	87.86				
1082	88.048				
1083	88.233				
1084	88.406				
1085	88.547				
1086	88.719				
1087	88.857				
1088	88.979				
1089	89.104				
1090	89.174				
1091	89.262				
1092	89.323				
1093	89.356				
1094	89.405				
1095	89.368				
1096	89.351				
1097	89.329				
1098	89.259				
1099	89.172				
1100	89.086				
