Wavelength	Transmittance	hex_color	Manufacturer	Name	Filter Number
475	0.002		Omega	483.5BP2 Bandpass	W2885
476	0.0				
477	0.002				
478	0.0				
479	0.0				
480	0.023				
481	0.284				
482	28.564				
483	81.482				
484	68.705				
485	0.553				
486	0.026				
487	0.0				
488	0.002				
489	0.003				
490	0.001				
491	0.0				
492	0.005				
493	0.0				
494	0.0				
495	0.0				
