Wavelength	Transmittance	hex_color	Manufacturer	Name	Filter Number
300	0.005		Omega	740CFSP-19MM Shortpass	W2809
301	0.0				
302	0.001				
303	0.001				
304	0.001				
305	0.002				
306	0.0				
307	0.001				
308	0.0				
309	0.003				
310	0.004				
311	0.003				
312	0.01				
313	0.022				
314	0.087				
315	0.365				
316	3.295				
317	24.251				
318	12.576				
319	5.117				
320	6.67				
321	15.369				
322	45.49				
323	63.223				
324	39.395				
325	28.185				
326	29.329				
327	39.734				
328	59.787				
329	78.238				
330	79.388				
331	69.749				
332	63.39				
333	62.955				
334	68.391				
335	75.591				
336	84.352				
337	88.328				
338	90.604				
339	88.449				
340	90.4				
341	89.286				
342	92.214				
343	90.889				
344	93.635				
345	91.722				
346	93.914				
347	92.141				
348	93.529				
349	97.271				
350	97.34				
351	97.807				
352	98.294				
353	98.071				
354	97.856				
355	97.818				
356	97.684				
357	97.99				
358	98.183				
359	98.674				
360	98.537				
361	98.632				
362	98.424				
363	97.873				
364	97.438				
365	97.64				
366	97.699				
367	97.943				
368	98.419				
369	98.765				
370	98.798				
371	98.768				
372	98.463				
373	97.955				
374	97.545				
375	97.252				
376	97.274				
377	97.531				
378	97.881				
379	98.296				
380	98.626				
381	98.676				
382	98.234				
383	97.98				
384	97.29				
385	96.858				
386	96.511				
387	96.543				
388	97.048				
389	97.542				
390	98.043				
391	98.363				
392	98.57				
393	98.619				
394	98.237				
395	97.663				
396	97.174				
397	96.63				
398	96.395				
399	96.542				
400	96.728				
401	97.271				
402	97.907				
403	98.402				
404	98.657				
405	98.74				
406	98.566				
407	98.035				
408	97.578				
409	97.099				
410	96.603				
411	96.536				
412	96.563				
413	96.988				
414	97.503				
415	98.062				
416	98.656				
417	98.876				
418	98.94				
419	98.789				
420	98.417				
421	97.786				
422	97.276				
423	96.774				
424	96.334				
425	96.076				
426	96.17				
427	96.472				
428	96.982				
429	97.565				
430	98.139				
431	98.743				
432	99.142				
433	99.24				
434	99.178				
435	98.931				
436	98.536				
437	97.985				
438	97.611				
439	97.278				
440	97.095				
441	97.025				
442	97.177				
443	97.488				
444	97.799				
445	98.301				
446	98.7				
447	98.97				
448	99.154				
449	99.174				
450	99.058				
451	98.756				
452	98.388				
453	98.068				
454	97.711				
455	97.397				
456	97.153				
457	97.031				
458	97.094				
459	97.327				
460	97.596				
461	97.968				
462	98.236				
463	98.491				
464	98.825				
465	99.026				
466	99.054				
467	98.872				
468	98.687				
469	98.416				
470	98.121				
471	97.694				
472	97.386				
473	97.252				
474	97.12				
475	97.018				
476	97.02				
477	97.076				
478	97.383				
479	97.552				
480	97.833				
481	98.091				
482	98.342				
483	98.533				
484	98.546				
485	98.551				
486	98.452				
487	98.314				
488	98.103				
489	97.821				
490	97.612				
491	97.303				
492	97.119				
493	96.976				
494	96.924				
495	96.916				
496	96.915				
497	97.088				
498	97.241				
499	97.435				
500	97.629				
501	97.88				
502	98.056				
503	98.155				
504	98.166				
505	98.236				
506	98.226				
507	98.134				
508	97.948				
509	97.765				
510	97.65				
511	97.461				
512	97.28				
513	97.105				
514	96.924				
515	96.861				
516	96.83				
517	96.75				
518	96.737				
519	96.851				
520	96.937				
521	97.077				
522	97.232				
523	97.439				
524	97.544				
525	97.794				
526	97.862				
527	97.993				
528	97.99				
529	98.046				
530	98.083				
531	97.986				
532	97.993				
533	97.82				
534	97.657				
535	97.578				
536	97.451				
537	97.379				
538	97.273				
539	97.195				
540	97.146				
541	97.059				
542	97.117				
543	97.138				
544	97.173				
545	97.196				
546	97.308				
547	97.36				
548	97.471				
549	97.612				
550	97.775				
551	97.778				
552	97.908				
553	97.961				
554	97.969				
555	98.067				
556	98.121				
557	98.087				
558	98.01				
559	98.064				
560	98.01				
561	97.912				
562	97.899				
563	97.82				
564	97.71				
565	97.692				
566	97.585				
567	97.592				
568	97.54				
569	97.517				
570	97.495				
571	97.521				
572	97.641				
573	97.62				
574	97.829				
575	97.764				
576	97.756				
577	97.906				
578	97.999				
579	98.078				
580	98.022				
581	98.194				
582	98.199				
583	98.221				
584	98.271				
585	98.183				
586	98.209				
587	98.222				
588	98.195				
589	98.068				
590	98.101				
591	97.954				
592	97.891				
593	97.815				
594	97.785				
595	97.696				
596	97.692				
597	97.575				
598	97.608				
599	97.496				
600	97.55				
601	97.59				
602	97.568				
603	97.617				
604	97.656				
605	97.69				
606	97.73				
607	97.761				
608	97.865				
609	97.912				
610	98.02				
611	98.047				
612	98.084				
613	98.178				
614	98.204				
615	98.173				
616	98.169				
617	98.166				
618	98.166				
619	98.071				
620	98.058				
621	97.985				
622	97.973				
623	97.956				
624	97.824				
625	97.794				
626	97.789				
627	97.736				
628	97.728				
629	97.612				
630	97.58				
631	97.553				
632	97.58				
633	97.587				
634	97.675				
635	97.622				
636	97.58				
637	97.571				
638	97.684				
639	97.718				
640	97.656				
641	97.717				
642	97.787				
643	97.755				
644	97.728				
645	97.763				
646	97.703				
647	97.661				
648	97.635				
649	97.537				
650	97.643				
651	97.494				
652	97.417				
653	97.454				
654	97.362				
655	97.36				
656	97.205				
657	97.314				
658	97.328				
659	97.225				
660	97.268				
661	97.222				
662	97.259				
663	97.339				
664	97.325				
665	97.416				
666	97.443				
667	97.502				
668	97.571				
669	97.566				
670	97.658				
671	97.678				
672	97.686				
673	97.752				
674	97.704				
675	97.673				
676	97.657				
677	97.506				
678	97.455				
679	97.333				
680	97.342				
681	97.212				
682	97.139				
683	96.976				
684	96.892				
685	96.806				
686	96.744				
687	96.633				
688	96.665				
689	96.575				
690	96.562				
691	96.568				
692	96.573				
693	96.629				
694	96.661				
695	96.831				
696	96.876				
697	96.931				
698	97.14				
699	97.056				
700	97.139				
701	97.086				
702	97.241				
703	97.173				
704	97.124				
705	97.014				
706	96.886				
707	96.755				
708	96.556				
709	96.353				
710	96.15				
711	95.838				
712	95.67				
713	95.429				
714	95.438				
715	95.398				
716	95.347				
717	95.344				
718	95.522				
719	95.735				
720	96.119				
721	96.486				
722	96.751				
723	96.907				
724	96.767				
725	96.278				
726	95.455				
727	93.804				
728	91.387				
729	87.896				
730	83.526				
731	77.979				
732	71.659				
733	64.852				
734	57.804				
735	50.799				
736	44.054				
737	37.901				
738	32.35				
739	27.472				
740	23.239				
741	19.635				
742	16.607				
743	14.057				
744	11.892				
745	10.105				
746	8.636				
747	7.386				
748	6.342				
749	5.451				
750	4.725				
751	4.085				
752	3.564				
753	3.101				
754	2.711				
755	2.405				
756	2.117				
757	1.872				
758	1.655				
759	1.477				
760	1.313				
761	1.18				
762	1.065				
763	0.953				
764	0.863				
765	0.78				
766	0.704				
767	0.652				
768	0.588				
769	0.538				
770	0.49				
771	0.451				
772	0.415				
773	0.383				
774	0.351				
775	0.323				
776	0.304				
777	0.279				
778	0.255				
779	0.244				
780	0.228				
781	0.213				
782	0.196				
783	0.189				
784	0.18				
785	0.169				
786	0.155				
787	0.15				
788	0.137				
789	0.13				
790	0.118				
791	0.121				
792	0.118				
793	0.109				
794	0.104				
795	0.1				
796	0.093				
797	0.087				
798	0.085				
799	0.08				
800	0.079				
801	0.077				
802	0.074				
803	0.072				
804	0.069				
805	0.066				
806	0.065				
807	0.059				
808	0.065				
809	0.058				
810	0.057				
811	0.056				
812	0.052				
813	0.059				
814	0.049				
815	0.049				
816	0.049				
817	0.047				
818	0.045				
819	0.049				
820	0.044				
821	0.047				
822	0.047				
823	0.046				
824	0.041				
825	0.043				
826	0.045				
827	0.04				
828	0.041				
829	0.042				
830	0.041				
831	0.039				
832	0.04				
833	0.04				
834	0.043				
835	0.04				
836	0.039				
837	0.039				
838	0.037				
839	0.039				
840	0.041				
841	0.038				
842	0.038				
843	0.037				
844	0.039				
845	0.04				
846	0.043				
847	0.038				
848	0.041				
849	0.037				
850	0.043				
851	0.044				
852	0.051				
853	0.045				
854	0.043				
855	0.042				
856	0.044				
857	0.042				
858	0.051				
859	0.043				
860	0.05				
861	0.043				
862	0.037				
863	0.047				
864	0.059				
865	0.056				
866	0.049				
867	0.052				
868	0.052				
869	0.059				
870	0.054				
871	0.066				
872	0.062				
873	0.045				
874	0.065				
875	0.06				
876	0.076				
877	0.063				
878	0.062				
879	0.082				
880	0.062				
881	0.084				
882	0.053				
883	0.03				
884	0.0				
885	0.0				
886	0.0				
887	0.0				
888	0.0				
889	0.0				
890	0.0				
891	0.0				
892	0.0				
893	0.0				
894	0.0				
895	0.0				
896	0.0				
897	0.0				
898	0.0				
899	0.0				
900	0.0				
901	0.0				
902	0.0				
903	0.0				
904	0.0				
905	0.0				
906	0.0				
907	0.0				
908	0.0				
909	0.0				
910	0.0				
911	0.038				
912	0.055				
913	0.066				
914	0.106				
915	0.148				
916	0.177				
917	0.202				
918	0.257				
919	0.31				
920	0.359				
921	0.412				
922	0.484				
923	0.548				
924	0.658				
925	0.756				
926	0.85				
927	0.978				
928	1.094				
929	1.25				
930	1.428				
931	1.614				
932	1.88				
933	2.176				
934	2.452				
935	2.819				
936	3.248				
937	3.749				
938	4.326				
939	5.084				
940	5.903				
941	6.915				
942	8.163				
943	9.701				
944	11.546				
945	13.915				
946	16.814				
947	20.297				
948	24.684				
949	30.339				
950	36.751				
951	44.504				
952	53.481				
953	62.255				
954	70.666				
955	77.771				
956	81.93				
957	82.895				
958	80.678				
959	76.192				
960	70.315				
961	63.837				
962	57.597				
963	51.968				
964	46.7				
965	42.208				
966	38.597				
967	35.346				
968	32.625				
969	30.408				
970	28.427				
971	26.733				
972	25.378				
973	24.215				
974	23.204				
975	22.368				
976	21.679				
977	21.066				
978	20.597				
979	20.224				
980	19.911				
981	19.684				
982	19.543				
983	19.475				
984	19.442				
985	19.502				
986	19.585				
987	19.746				
988	19.961				
989	20.266				
990	20.59				
991	20.956				
992	21.415				
993	21.925				
994	22.483				
995	23.147				
996	23.859				
997	24.659				
998	25.515				
999	26.5				
1000	27.517				
1001	28.663				
1002	29.972				
1003	31.302				
1004	32.705				
1005	34.354				
1006	36.026				
1007	37.836				
1008	39.893				
1009	42.044				
1010	44.1				
1011	46.533				
1012	49.068				
1013	51.623				
1014	54.33				
1015	57.28				
1016	60.042				
1017	62.904				
1018	65.786				
1019	68.49				
1020	71.236				
1021	73.807				
1022	76.155				
1023	78.171				
1024	79.936				
1025	81.366				
1026	82.334				
1027	83.004				
1028	83.29				
1029	83.182				
1030	82.685				
1031	81.843				
1032	80.775				
1033	79.459				
1034	77.796				
1035	76.145				
1036	74.373				
1037	72.449				
1038	70.498				
1039	68.604				
1040	66.62				
1041	64.692				
1042	62.849				
1043	61.075				
1044	59.304				
1045	57.699				
1046	56.137				
1047	54.601				
1048	53.298				
1049	52.035				
1050	50.74				
1051	49.678				
1052	48.64				
1053	47.607				
1054	46.728				
1055	45.973				
1056	45.194				
1057	44.514				
1058	43.953				
1059	43.366				
1060	42.875				
1061	42.452				
1062	42.094				
1063	41.778				
1064	41.526				
1065	41.311				
1066	41.16				
1067	41.059				
1068	40.994				
1069	40.958				
1070	41.008				
1071	41.086				
1072	41.213				
1073	41.378				
1074	41.573				
1075	41.834				
1076	42.123				
1077	42.495				
1078	42.846				
1079	43.273				
1080	43.733				
1081	44.253				
1082	44.816				
1083	45.374				
1084	46.047				
1085	46.73				
1086	47.418				
1087	48.208				
1088	48.996				
1089	49.871				
1090	50.751				
1091	51.753				
1092	52.701				
1093	53.675				
1094	54.799				
1095	55.851				
1096	56.917				
1097	58.095				
1098	59.315				
1099	60.443				
1100	61.587				
