Wavelength	Transmittance	hex_color	Manufacturer	Name	Filter Number
300	0.0		Omega	505DRLPXR Dichroic	XF2031/25.7*36
301	0.0				
302	0.0				
303	0.0				
304	0.0				
305	0.0				
306	0.0				
307	0.0				
308	0.0				
309	0.0				
310	0.0				
311	0.0				
312	0.0				
313	0.0				
314	0.0				
315	0.0				
316	0.0				
317	0.0				
318	0.0				
319	0.0				
320	0.0				
321	0.0				
322	0.0				
323	0.0				
324	0.0				
325	0.0				
326	0.0				
327	0.0				
328	0.0				
329	0.0				
330	0.0				
331	0.0				
332	0.0				
333	0.0				
334	0.0				
335	0.0				
336	0.0				
337	0.0				
338	0.0				
339	0.0				
340	0.0				
341	0.0				
342	0.0				
343	0.0				
344	0.0				
345	0.0				
346	0.0				
347	0.0				
348	0.0				
349	0.0				
350	0.0				
351	0.0				
352	0.0				
353	0.0				
354	0.0				
355	0.0				
356	0.0				
357	0.0				
358	0.0				
359	0.0				
360	0.0				
361	0.0				
362	0.0				
363	0.031				
364	0.0				
365	0.0				
366	0.0				
367	0.0				
368	0.156				
369	0.155				
370	0.214				
371	0.389				
372	0.563				
373	0.698				
374	0.943				
375	1.231				
376	1.366				
377	1.302				
378	1.111				
379	0.88				
380	0.711				
381	0.638				
382	0.575				
383	0.528				
384	0.655				
385	0.639				
386	0.732				
387	0.874				
388	0.96				
389	1.104				
390	1.226				
391	1.369				
392	1.586				
393	1.783				
394	1.971				
395	2.041				
396	2.042				
397	1.871				
398	1.714				
399	1.388				
400	1.174				
401	1.046				
402	0.905				
403	0.811				
404	0.8				
405	0.782				
406	0.746				
407	0.727				
408	0.716				
409	0.75				
410	0.693				
411	0.679				
412	0.664				
413	0.574				
414	0.555				
415	0.487				
416	0.481				
417	0.563				
418	0.493				
419	0.568				
420	0.636				
421	0.649				
422	0.664				
423	0.727				
424	0.714				
425	0.794				
426	0.827				
427	0.817				
428	0.9				
429	0.877				
430	0.964				
431	1.026				
432	1.118				
433	1.169				
434	1.343				
435	1.46				
436	1.689				
437	1.864				
438	2.065				
439	2.322				
440	2.528				
441	2.746				
442	2.963				
443	3.145				
444	3.483				
445	3.791				
446	4.268				
447	4.879				
448	5.74				
449	6.439				
450	7.817				
451	8.945				
452	10.245				
453	10.461				
454	9.66				
455	8.078				
456	6.615				
457	5.076				
458	3.888				
459	2.982				
460	2.494				
461	2.045				
462	1.666				
463	1.401				
464	1.158				
465	1.03				
466	0.898				
467	0.873				
468	0.749				
469	0.759				
470	0.644				
471	0.61				
472	0.643				
473	0.619				
474	0.636				
475	0.661				
476	0.731				
477	0.694				
478	0.735				
479	0.781				
480	0.959				
481	1.026				
482	1.101				
483	1.301				
484	1.504				
485	1.676				
486	1.978				
487	2.357				
488	2.721				
489	3.285				
490	3.945				
491	5.134				
492	6.512				
493	7.77				
494	10.004				
495	12.476				
496	16.227				
497	21.55				
498	26.695				
499	33.586				
500	39.136				
501	46.043				
502	52.712				
503	59.122				
504	66.679				
505	72.855				
506	80.83				
507	85.464				
508	86.121				
509	83.169				
510	80.143				
511	77.436				
512	75.359				
513	74.82				
514	75.069				
515	76.338				
516	77.855				
517	80.094				
518	82.214				
519	84.599				
520	87.072				
521	88.865				
522	90.322				
523	91.046				
524	91.441				
525	91.175				
526	90.364				
527	89.359				
528	87.97				
529	87.176				
530	86.047				
531	85.078				
532	84.364				
533	83.798				
534	83.626				
535	83.516				
536	83.796				
537	84.07				
538	84.64				
539	85.291				
540	86.008				
541	86.65				
542	87.458				
543	88.221				
544	89.017				
545	89.672				
546	90.183				
547	90.984				
548	91.318				
549	91.747				
550	92.058				
551	92.373				
552	92.722				
553	92.7				
554	92.518				
555	92.427				
556	92.325				
557	91.87				
558	91.358				
559	91.085				
560	90.56				
561	89.818				
562	89.141				
563	88.391				
564	87.668				
565	87.134				
566	86.462				
567	85.645				
568	85.09				
569	84.601				
570	84.203				
571	83.915				
572	83.837				
573	83.524				
574	83.423				
575	83.684				
576	83.719				
577	83.935				
578	84.196				
579	84.523				
580	85.085				
581	85.862				
582	86.289				
583	86.9				
584	87.5				
585	88.061				
586	88.733				
587	89.264				
588	89.769				
589	90.114				
590	90.449				
591	90.718				
592	90.883				
593	90.934				
594	90.914				
595	91.128				
596	90.744				
597	90.592				
598	90.643				
599	90.466				
600	90.061				
601	89.929				
602	90.001				
603	89.756				
604	89.752				
605	89.642				
606	89.668				
607	89.84				
608	90.001				
609	90.206				
610	90.375				
611	90.637				
612	90.626				
613	91.192				
614	91.287				
615	91.704				
616	92.008				
617	92.18				
618	92.498				
619	92.879				
620	93.065				
621	93.328				
622	93.572				
623	93.401				
624	93.415				
625	93.282				
626	92.834				
627	92.277				
628	91.537				
629	90.534				
630	89.461				
631	87.639				
632	85.512				
633	82.893				
634	79.864				
635	77.071				
636	74.361				
637	70.455				
638	67.182				
639	63.298				
640	59.61				
641	56.088				
642	53.306				
643	49.931				
644	46.844				
645	43.686				
646	40.277				
647	37.369				
648	34.651				
649	32.806				
650	30.194				
651	28.11				
652	26.156				
653	23.941				
654	21.964				
655	20.116				
656	19.222				
657	17.619				
658	16.121				
659	14.998				
660	13.748				
661	12.65				
662	11.773				
663	10.86				
664	10.03				
665	9.611				
666	8.825				
667	8.119				
668	7.73				
669	7.181				
670	6.778				
671	6.55				
672	6.076				
673	5.888				
674	5.577				
675	5.326				
676	5.191				
677	4.766				
678	4.634				
679	4.328				
680	4.457				
681	4.183				
682	3.92				
683	3.874				
684	3.743				
685	3.656				
686	3.62				
687	3.564				
688	3.449				
689	3.351				
690	3.274				
691	3.225				
692	3.249				
693	3.192				
694	3.065				
695	3.167				
696	3.174				
697	3.182				
698	3.147				
699	3.217				
700	3.288				
701	3.29				
702	3.252				
703	3.348				
704	3.248				
705	3.462				
706	3.448				
707	3.545				
708	3.593				
709	3.644				
710	3.658				
711	3.852				
712	3.964				
713	4.08				
714	4.212				
715	4.463				
716	4.589				
717	4.722				
718	4.785				
719	5.146				
720	5.263				
721	5.588				
722	5.823				
723	6.168				
724	6.632				
725	6.81				
726	7.252				
727	7.798				
728	8.174				
729	8.762				
730	9.283				
731	10.162				
732	10.807				
733	11.567				
734	12.468				
735	13.52				
736	14.675				
737	16.048				
738	17.576				
739	19.028				
740	20.9				
741	22.558				
742	24.25				
743	26.636				
744	28.453				
745	31.207				
746	34.014				
747	36.752				
748	39.452				
749	41.917				
750	45.04				
751	47.792				
752	50.286				
753	52.445				
754	54.372				
755	56.837				
756	58.718				
757	60.751				
758	62.655				
759	64.292				
760	66.922				
761	69.463				
762	72.363				
763	74.705				
764	76.976				
765	77.725				
766	78.085				
767	77.864				
768	76.041				
769	73.632				
770	70.79				
771	67.403				
772	64.362				
773	61.01				
774	58.615				
775	56.175				
776	53.193				
777	51.844				
778	49.99				
779	48.65				
780	47.121				
781	46.221				
782	45.293				
783	44.422				
784	44.066				
785	43.128				
786	43.147				
787	43.125				
788	42.899				
789	43.232				
790	43.121				
791	43.535				
792	44.126				
793	44.78				
794	45.22				
795	45.793				
796	46.722				
797	47.334				
798	48.465				
799	49.302				
800	50.476				
801	51.632				
802	53.06				
803	54.92				
804	56.013				
805	57.52				
806	59.122				
807	60.794				
808	62.848				
809	64.405				
810	66.475				
811	69.196				
812	71.262				
813	73.272				
814	75.442				
815	77.581				
816	79.658				
817	81.421				
818	82.904				
819	85.404				
820	86.19				
821	87.63				
822	89.428				
823	90.259				
824	90.966				
825	91.066				
826	91.435				
827	91.279				
828	90.951				
829	90.418				
830	89.332				
831	88.307				
832	87.561				
833	85.904				
834	83.782				
835	82.307				
836	80.537				
837	78.831				
838	77.331				
839	75.038				
840	73.902				
841	72.071				
842	70.269				
843	69.17				
844	67.627				
845	66.364				
846	64.821				
847	63.671				
848	62.678				
849	61.518				
850	60.323				
