Wavelength	Transmittance	hex_color	Manufacturer	Name	Filter Number
450	0.065		Omega	595DCLP Dichroic	W2810
451	0.093				
452	0.028				
453	0.001				
454	0.0				
455	0.007				
456	0.0				
457	0.0				
458	0.0				
459	0.0				
460	0.0				
461	0.004				
462	0.0				
463	0.0				
464	0.0				
465	0.0				
466	0.0				
467	0.0				
468	0.0				
469	0.0				
470	0.0				
471	0.0				
472	0.0				
473	0.0				
474	0.0				
475	0.0				
476	0.0				
477	0.0				
478	0.0				
479	0.0				
480	0.0				
481	0.0				
482	0.0				
483	0.0				
484	0.0				
485	0.0				
486	0.0				
487	0.0				
488	0.0				
489	0.0				
490	0.0				
491	0.0				
492	0.0				
493	0.0				
494	0.0				
495	0.0				
496	0.0				
497	0.0				
498	0.0				
499	0.0				
500	0.0				
501	0.0				
502	0.0				
503	0.0				
504	0.0				
505	0.0				
506	0.0				
507	0.0				
508	0.0				
509	0.0				
510	0.0				
511	0.0				
512	0.0				
513	0.0				
514	0.0				
515	0.0				
516	0.0				
517	0.0				
518	0.0				
519	0.0				
520	0.0				
521	0.0				
522	0.0				
523	0.0				
524	0.0				
525	0.0				
526	0.0				
527	0.0				
528	0.0				
529	0.0				
530	0.0				
531	0.0				
532	0.0				
533	0.0				
534	0.0				
535	0.0				
536	0.0				
537	0.0				
538	0.0				
539	0.0				
540	0.0				
541	0.0				
542	0.0				
543	0.0				
544	0.0				
545	0.0				
546	0.0				
547	0.0				
548	0.0				
549	0.0				
550	0.0				
551	0.0				
552	0.0				
553	0.0				
554	0.0				
555	0.0				
556	0.0				
557	0.008				
558	0.0				
559	0.0				
560	0.029				
561	0.0				
562	0.025				
563	0.0				
564	0.0				
565	0.04				
566	0.012				
567	0.087				
568	0.179				
569	0.149				
570	0.334				
571	0.301				
572	0.372				
573	0.434				
574	0.514				
575	0.629				
576	0.854				
577	0.989				
578	1.13				
579	1.474				
580	1.903				
581	2.303				
582	2.962				
583	3.755				
584	4.74				
585	6.147				
586	7.674				
587	10.015				
588	13.295				
589	17.383				
590	21.368				
591	27.346				
592	34.364				
593	42.675				
594	51.216				
595	61.872				
596	71.203				
597	78.674				
598	83.71				
599	88.628				
600	92.13				
601	94.571				
602	95.416				
603	95.906				
604	95.817				
605	95.75				
606	95.438				
607	95.248				
608	94.907				
609	94.878				
610	95.077				
611	95.043				
612	95.281				
613	95.4				
614	95.601				
615	95.693				
616	95.936				
617	96.068				
618	96.266				
619	96.228				
620	96.306				
621	96.298				
622	96.258				
623	96.127				
624	95.959				
625	96.031				
626	95.873				
627	95.683				
628	95.666				
629	95.631				
630	95.435				
631	95.378				
632	95.41				
633	95.387				
634	95.32				
635	95.495				
636	95.514				
637	95.556				
638	95.624				
639	95.743				
640	95.916				
641	95.843				
642	96.094				
643	96.07				
644	96.122				
645	96.125				
646	96.307				
647	96.207				
648	96.275				
649	96.619				
650	96.518				
651	96.324				
652	96.326				
653	96.403				
654	96.31				
655	96.21				
656	96.143				
657	96.034				
658	96.018				
659	95.842				
660	95.919				
661	95.783				
662	95.725				
663	96.026				
664	95.866				
665	95.72				
666	95.724				
667	95.439				
668	95.532				
669	95.721				
670	95.518				
671	95.733				
672	95.416				
673	95.553				
674	95.608				
675	95.712				
676	95.788				
677	95.582				
678	95.777				
679	95.885				
680	95.801				
681	95.875				
682	96.026				
683	96.034				
684	96.199				
685	96.185				
686	96.27				
687	96.264				
688	96.451				
689	96.166				
690	96.369				
691	96.473				
692	96.328				
693	96.398				
694	96.465				
695	96.457				
696	96.407				
697	96.363				
698	96.33				
699	96.237				
700	96.227				
701	96.307				
702	96.257				
703	96.211				
704	96.144				
705	96.003				
706	96.154				
707	96.03				
708	95.965				
709	95.914				
710	95.867				
711	95.954				
712	95.842				
713	95.966				
714	95.849				
715	95.667				
716	95.758				
717	95.891				
718	95.806				
719	95.983				
720	95.836				
721	95.818				
722	95.848				
723	95.848				
724	95.705				
725	95.774				
726	95.789				
727	95.902				
728	96.18				
729	96.238				
730	96.07				
731	96.138				
732	96.214				
733	96.429				
734	96.234				
735	96.341				
736	96.314				
737	95.955				
738	96.244				
739	96.321				
740	96.345				
741	96.306				
742	96.184				
743	96.541				
744	96.369				
745	96.542				
746	96.269				
747	96.385				
748	96.85				
749	96.18				
750	96.249				
751	96.451				
752	96.035				
753	96.295				
754	96.253				
755	96.198				
756	96.345				
757	96.495				
758	96.052				
759	96.371				
760	96.24				
761	96.408				
762	95.984				
763	96.037				
764	96.194				
765	96.429				
766	95.972				
767	95.824				
768	96.133				
769	95.729				
770	95.709				
771	96.193				
772	95.887				
773	96.172				
774	95.761				
775	95.641				
776	96.027				
777	95.923				
778	95.969				
779	95.714				
780	95.973				
781	95.635				
782	95.908				
783	95.99				
784	95.835				
785	95.507				
786	95.955				
787	95.795				
788	95.776				
789	96.242				
790	96.113				
791	95.875				
792	96.006				
793	96.47				
794	96.165				
795	95.918				
796	95.728				
797	96.132				
798	96.14				
799	96.192				
800	96.476				
801	95.852				
802	96.527				
803	96.231				
804	96.36				
805	96.389				
806	96.134				
807	96.05				
808	95.997				
809	96.531				
810	96.532				
811	96.209				
812	96.334				
813	96.427				
814	96.071				
815	96.43				
816	96.586				
817	96.45				
818	96.42				
819	96.119				
820	96.569				
821	96.229				
822	96.378				
823	96.376				
824	96.154				
825	96.282				
826	96.387				
827	96.424				
828	96.387				
829	96.285				
830	96.18				
831	96.279				
832	95.7				
833	95.95				
834	95.982				
835	96.254				
836	96.076				
837	96.233				
838	96.148				
839	96.082				
840	96.372				
841	96.118				
842	96.423				
843	95.915				
844	95.976				
845	96.054				
846	96.041				
847	96.05				
848	96.255				
849	95.741				
850	96.458				
