Wavelength	Transmittance	hex_color	Manufacturer	Name	Filter Number
300	17.189		Omega	355-680nm BC Dichroic	W3063
301	17.638				
302	18.836				
303	20.372				
304	22.424				
305	25.526				
306	29.992				
307	35.991				
308	42.668				
309	47.788				
310	50.948				
311	49.527				
312	44.675				
313	36.144				
314	30.13				
315	22.449				
316	16.262				
317	12.361				
318	9.692				
319	8.135				
320	6.529				
321	5.279				
322	4.376				
323	3.57				
324	3.301				
325	2.735				
326	2.349				
327	2.075				
328	1.96				
329	1.823				
330	1.622				
331	1.601				
332	1.411				
333	1.244				
334	0.999				
335	1.143				
336	0.926				
337	1.054				
338	0.812				
339	1.089				
340	0.944				
341	0.793				
342	0.641				
343	0.765				
344	0.904				
345	0.973				
346	0.839				
347	0.829				
348	0.786				
349	0.823				
350	0.76				
351	0.644				
352	0.876				
353	0.749				
354	1.036				
355	0.841				
356	0.892				
357	0.939				
358	0.937				
359	1.052				
360	0.858				
361	1.099				
362	1.129				
363	1.136				
364	1.107				
365	1.172				
366	1.164				
367	1.426				
368	1.335				
369	1.465				
370	1.734				
371	1.666				
372	1.769				
373	1.92				
374	1.977				
375	2.197				
376	2.315				
377	2.408				
378	2.754				
379	2.883				
380	3.043				
381	3.202				
382	3.523				
383	3.964				
384	4.129				
385	4.484				
386	4.974				
387	5.351				
388	5.754				
389	6.403				
390	6.896				
391	7.462				
392	8.386				
393	9.089				
394	10.009				
395	10.968				
396	11.895				
397	13.174				
398	13.893				
399	15.553				
400	16.876				
401	18.327				
402	19.839				
403	21.317				
404	23.087				
405	24.876				
406	26.508				
407	28.006				
408	29.528				
409	32.104				
410	33.667				
411	35.443				
412	36.756				
413	38.657				
414	40.402				
415	42.362				
416	43.828				
417	45.786				
418	47.152				
419	49.088				
420	50.892				
421	52.872				
422	53.996				
423	55.682				
424	57.339				
425	59.298				
426	61.042				
427	63.008				
428	64.247				
429	66.304				
430	67.758				
431	69.953				
432	72.066				
433	73.504				
434	75.05				
435	76.678				
436	78.736				
437	80.264				
438	81.84				
439	82.966				
440	84.504				
441	85.611				
442	87.216				
443	88.568				
444	89.618				
445	90.593				
446	91.528				
447	92.369				
448	93.067				
449	93.686				
450	94.377				
451	94.908				
452	95.146				
453	95.451				
454	95.708				
455	95.74				
456	95.865				
457	95.908				
458	95.688				
459	95.703				
460	95.591				
461	95.446				
462	95.107				
463	95.324				
464	94.789				
465	94.467				
466	94.42				
467	94.049				
468	93.907				
469	93.578				
470	93.13				
471	92.979				
472	92.822				
473	92.555				
474	92.306				
475	91.895				
476	92.12				
477	91.556				
478	91.553				
479	91.148				
480	90.918				
481	90.75				
482	90.857				
483	90.41				
484	90.334				
485	90.224				
486	89.858				
487	89.663				
488	89.305				
489	89.475				
490	89.508				
491	89.29				
492	88.971				
493	89.057				
494	89.034				
495	88.758				
496	88.355				
497	88.563				
498	88.418				
499	88.235				
500	88.054				
501	88.094				
502	87.988				
503	87.769				
504	87.665				
505	87.535				
506	87.589				
507	87.372				
508	87.385				
509	87.308				
510	87.33				
511	87.296				
512	87.199				
513	87.12				
514	87.125				
515	86.907				
516	86.727				
517	86.734				
518	86.604				
519	86.912				
520	86.883				
521	87.002				
522	87.006				
523	87.138				
524	86.938				
525	87.167				
526	87.094				
527	87.215				
528	86.956				
529	87.251				
530	87.605				
531	87.333				
532	87.632				
533	88.116				
534	87.538				
535	88.079				
536	88.15				
537	88.647				
538	88.511				
539	88.714				
540	88.735				
541	89.123				
542	89.265				
543	89.475				
544	89.926				
545	90.137				
546	89.931				
547	90.491				
548	90.834				
549	90.827				
550	90.642				
551	91.524				
552	91.585				
553	91.736				
554	91.982				
555	92.21				
556	92.346				
557	92.938				
558	92.323				
559	92.943				
560	93.15				
561	93.762				
562	93.34				
563	93.584				
564	94.009				
565	94.077				
566	94.085				
567	94.323				
568	94.657				
569	94.328				
570	94.701				
571	94.93				
572	94.659				
573	94.781				
574	94.754				
575	94.802				
576	94.87				
577	95.106				
578	94.939				
579	94.581				
580	94.92				
581	94.765				
582	94.879				
583	94.538				
584	94.663				
585	94.255				
586	94.401				
587	94.308				
588	94.024				
589	93.51				
590	93.635				
591	93.884				
592	93.874				
593	93.653				
594	92.957				
595	93.099				
596	93.006				
597	92.874				
598	92.55				
599	92.027				
600	92.366				
601	92.052				
602	91.685				
603	91.524				
604	91.291				
605	91.213				
606	91.118				
607	90.286				
608	90.374				
609	90.371				
610	89.804				
611	89.961				
612	89.689				
613	89.108				
614	88.702				
615	88.851				
616	88.561				
617	88.558				
618	88.576				
619	88.287				
620	87.526				
621	87.812				
622	87.743				
623	87.743				
624	87.425				
625	87.161				
626	86.978				
627	86.942				
628	86.618				
629	86.988				
630	86.557				
631	87.271				
632	86.244				
633	86.484				
634	86.012				
635	86.064				
636	86.175				
637	86.444				
638	85.834				
639	85.98				
640	86.017				
641	86.325				
642	85.893				
643	85.869				
644	85.218				
645	86.085				
646	85.736				
647	86.092				
648	85.866				
649	85.708				
650	85.796				
651	86.162				
652	85.899				
653	86.364				
654	86.257				
655	86.093				
656	86.12				
657	86.337				
658	86.238				
659	86.669				
660	86.69				
661	86.361				
662	86.62				
663	86.751				
664	86.5				
665	87.258				
666	87.08				
667	86.856				
668	87.205				
669	87.455				
670	87.427				
671	87.699				
672	88.197				
673	87.862				
674	88.114				
675	88.361				
676	88.271				
677	88.412				
678	88.715				
679	88.174				
680	88.495				
681	89.133				
682	88.728				
683	89.402				
684	89.051				
685	89.008				
686	89.495				
687	90.024				
688	89.394				
689	89.858				
690	90.253				
691	90.282				
692	90.264				
693	90.201				
694	90.319				
695	90.4				
696	90.662				
697	90.719				
698	90.818				
699	90.879				
700	90.97				
