Wavelength	Transmittance	hex_color	Manufacturer	Name	Filter Number
350	2.047		Omega	ND2.0 Neutral Density	W2762
351	2.05				
352	2.052				
353	2.054				
354	2.049				
355	2.054				
356	2.051				
357	2.055				
358	2.053				
359	2.049				
360	2.05				
361	2.055				
362	2.056				
363	2.053				
364	2.054				
365	2.055				
366	2.055				
367	2.058				
368	2.058				
369	2.06				
370	2.057				
371	2.057				
372	2.06				
373	2.058				
374	2.061				
375	2.061				
376	2.055				
377	2.061				
378	2.06				
379	2.062				
380	2.06				
381	2.059				
382	2.06				
383	2.062				
384	2.063				
385	2.063				
386	2.065				
387	2.063				
388	2.064				
389	2.066				
390	2.065				
391	2.064				
392	2.065				
393	2.065				
394	2.066				
395	2.066				
396	2.065				
397	2.067				
398	2.066				
399	2.066				
400	2.066				
401	2.068				
402	2.066				
403	2.065				
404	2.067				
405	2.067				
406	2.067				
407	2.064				
408	2.067				
409	2.066				
410	2.066				
411	2.07				
412	2.068				
413	2.066				
414	2.067				
415	2.068				
416	2.068				
417	2.066				
418	2.066				
419	2.069				
420	2.066				
421	2.068				
422	2.067				
423	2.066				
424	2.065				
425	2.067				
426	2.067				
427	2.066				
428	2.067				
429	2.067				
430	2.066				
431	2.066				
432	2.065				
433	2.066				
434	2.067				
435	2.066				
436	2.066				
437	2.066				
438	2.066				
439	2.065				
440	2.065				
441	2.063				
442	2.063				
443	2.064				
444	2.064				
445	2.064				
446	2.063				
447	2.063				
448	2.061				
449	2.062				
450	2.062				
451	2.062				
452	2.061				
453	2.061				
454	2.061				
455	2.06				
456	2.059				
457	2.059				
458	2.06				
459	2.059				
460	2.059				
461	2.058				
462	2.059				
463	2.057				
464	2.057				
465	2.057				
466	2.056				
467	2.056				
468	2.055				
469	2.053				
470	2.056				
471	2.055				
472	2.054				
473	2.053				
474	2.053				
475	2.051				
476	2.052				
477	2.052				
478	2.05				
479	2.051				
480	2.052				
481	2.049				
482	2.049				
483	2.049				
484	2.048				
485	2.048				
486	2.046				
487	2.047				
488	2.046				
489	2.045				
490	2.045				
491	2.044				
492	2.044				
493	2.044				
494	2.043				
495	2.042				
496	2.043				
497	2.042				
498	2.041				
499	2.041				
500	2.04				
501	2.041				
502	2.038				
503	2.036				
504	2.037				
505	2.036				
506	2.034				
507	2.036				
508	2.035				
509	2.035				
510	2.033				
511	2.033				
512	2.032				
513	2.032				
514	2.031				
515	2.031				
516	2.031				
517	2.028				
518	2.029				
519	2.028				
520	2.028				
521	2.027				
522	2.027				
523	2.026				
524	2.025				
525	2.023				
526	2.023				
527	2.023				
528	2.023				
529	2.022				
530	2.021				
531	2.022				
532	2.019				
533	2.019				
534	2.019				
535	2.018				
536	2.017				
537	2.017				
538	2.016				
539	2.015				
540	2.014				
541	2.013				
542	2.014				
543	2.013				
544	2.012				
545	2.011				
546	2.011				
547	2.01				
548	2.009				
549	2.007				
550	2.007				
551	2.008				
552	2.007				
553	2.005				
554	2.004				
555	2.005				
556	2.003				
557	2.003				
558	2.002				
559	2.002				
560	2.0				
561	1.999				
562	1.999				
563	1.998				
564	1.998				
565	1.996				
566	1.996				
567	1.995				
568	1.994				
569	1.995				
570	1.994				
571	1.992				
572	1.992				
573	1.991				
574	1.989				
575	1.99				
576	1.989				
577	1.988				
578	1.988				
579	1.986				
580	1.986				
581	1.986				
582	1.985				
583	1.985				
584	1.984				
585	1.983				
586	1.982				
587	1.981				
588	1.98				
589	1.98				
590	1.979				
591	1.977				
592	1.978				
593	1.977				
594	1.977				
595	1.976				
596	1.976				
597	1.975				
598	1.974				
599	1.972				
600	1.972				
601	1.972				
602	1.97				
603	1.969				
604	1.97				
605	1.969				
606	1.967				
607	1.967				
608	1.966				
609	1.966				
610	1.966				
611	1.964				
612	1.964				
613	1.963				
614	1.963				
615	1.961				
616	1.961				
617	1.96				
618	1.959				
619	1.959				
620	1.958				
621	1.957				
622	1.957				
623	1.957				
624	1.956				
625	1.954				
626	1.954				
627	1.953				
628	1.953				
629	1.952				
630	1.952				
631	1.951				
632	1.95				
633	1.949				
634	1.949				
635	1.948				
636	1.948				
637	1.947				
638	1.945				
639	1.946				
640	1.945				
641	1.944				
642	1.943				
643	1.942				
644	1.942				
645	1.941				
646	1.941				
647	1.94				
648	1.939				
649	1.939				
650	1.938				
651	1.938				
652	1.937				
653	1.937				
654	1.936				
655	1.935				
656	1.935				
657	1.934				
658	1.932				
659	1.932				
660	1.931				
661	1.931				
662	1.93				
663	1.93				
664	1.929				
665	1.928				
666	1.928				
667	1.927				
668	1.926				
669	1.925				
670	1.925				
671	1.925				
672	1.924				
673	1.923				
674	1.923				
675	1.922				
676	1.921				
677	1.92				
678	1.92				
679	1.92				
680	1.919				
681	1.919				
682	1.919				
683	1.918				
684	1.916				
685	1.916				
686	1.915				
687	1.914				
688	1.915				
689	1.914				
690	1.913				
691	1.913				
692	1.912				
693	1.911				
694	1.91				
695	1.91				
696	1.909				
697	1.91				
698	1.908				
699	1.908				
700	1.906				
701	1.907				
702	1.906				
703	1.906				
704	1.906				
705	1.904				
706	1.902				
707	1.903				
708	1.903				
709	1.902				
710	1.901				
711	1.9				
712	1.9				
713	1.901				
714	1.9				
715	1.899				
716	1.898				
717	1.898				
718	1.897				
719	1.896				
720	1.896				
721	1.895				
722	1.896				
723	1.896				
724	1.893				
725	1.894				
726	1.892				
727	1.893				
728	1.893				
729	1.892				
730	1.891				
731	1.89				
732	1.889				
733	1.889				
734	1.888				
735	1.888				
736	1.887				
737	1.887				
738	1.886				
739	1.885				
740	1.883				
741	1.885				
742	1.885				
743	1.883				
744	1.883				
745	1.882				
746	1.883				
747	1.88				
748	1.882				
749	1.881				
750	1.878				
