Wavelength	Transmittance	hex_color	Manufacturer	Name	Filter Number
300	4.163		Omega	770DRSP Dichroic	W2813
301	4.753				
302	5.017				
303	4.266				
304	3.052				
305	1.926				
306	1.295				
307	0.904				
308	0.598				
309	0.485				
310	0.393				
311	0.278				
312	0.294				
313	0.231				
314	0.228				
315	0.265				
316	0.239				
317	0.239				
318	0.335				
319	0.305				
320	0.389				
321	0.517				
322	0.523				
323	0.673				
324	0.922				
325	1.219				
326	1.534				
327	2.196				
328	3.088				
329	4.469				
330	6.786				
331	9.09				
332	14.497				
333	19.876				
334	27.3				
335	33.962				
336	38.777				
337	43.135				
338	44.726				
339	45.715				
340	45.964				
341	46.192				
342	46.521				
343	46.854				
344	47.371				
345	47.895				
346	48.427				
347	48.938				
348	49.46				
349	50.06				
350	50.648				
351	51.246				
352	51.85				
353	52.452				
354	53.072				
355	53.749				
356	54.584				
357	55.37				
358	56.352				
359	57.268				
360	58.616				
361	59.594				
362	60.749				
363	61.792				
364	62.914				
365	64.166				
366	65.059				
367	66.148				
368	66.905				
369	67.795				
370	68.53				
371	69.326				
372	70.036				
373	70.767				
374	71.483				
375	72.51				
376	73.527				
377	74.501				
378	75.723				
379	76.795				
380	78.628				
381	80.111				
382	81.493				
383	82.621				
384	84.127				
385	85.357				
386	86.543				
387	87.209				
388	88.095				
389	88.635				
390	88.968				
391	89.138				
392	89.255				
393	89.162				
394	89.181				
395	89.044				
396	89.144				
397	89.16				
398	89.164				
399	89.482				
400	89.729				
401	90.294				
402	90.978				
403	91.536				
404	92.274				
405	93.152				
406	93.929				
407	94.963				
408	95.684				
409	96.369				
410	96.834				
411	97.326				
412	97.527				
413	97.809				
414	97.453				
415	97.397				
416	97.202				
417	96.491				
418	96.204				
419	95.552				
420	95.14				
421	94.347				
422	94.018				
423	93.317				
424	93.191				
425	92.83				
426	92.45				
427	92.496				
428	92.523				
429	92.503				
430	92.666				
431	92.995				
432	93.238				
433	93.691				
434	93.932				
435	94.41				
436	94.762				
437	95.01				
438	95.274				
439	95.398				
440	95.449				
441	95.529				
442	95.538				
443	95.254				
444	94.902				
445	94.628				
446	94.027				
447	93.694				
448	93.213				
449	92.611				
450	91.945				
451	91.489				
452	91.047				
453	90.422				
454	90.102				
455	89.648				
456	89.186				
457	89.085				
458	88.91				
459	88.733				
460	88.759				
461	88.797				
462	88.985				
463	89.268				
464	89.461				
465	89.727				
466	90.124				
467	90.541				
468	90.996				
469	91.39				
470	91.959				
471	92.252				
472	92.88				
473	93.437				
474	93.817				
475	94.246				
476	94.361				
477	94.96				
478	94.952				
479	95.219				
480	95.389				
481	95.353				
482	95.418				
483	95.388				
484	95.357				
485	95.197				
486	94.98				
487	94.735				
488	94.644				
489	94.372				
490	94.111				
491	94.065				
492	93.802				
493	93.606				
494	93.476				
495	93.191				
496	93.209				
497	93.04				
498	92.939				
499	93.028				
500	93.005				
501	92.956				
502	93.06				
503	93.216				
504	93.288				
505	93.481				
506	93.684				
507	93.847				
508	94.037				
509	94.212				
510	94.521				
511	94.808				
512	95.15				
513	95.388				
514	95.634				
515	95.783				
516	96.139				
517	96.348				
518	96.737				
519	96.856				
520	96.948				
521	97.07				
522	97.362				
523	97.329				
524	97.577				
525	97.58				
526	97.598				
527	97.639				
528	97.76				
529	97.727				
530	97.749				
531	97.711				
532	97.387				
533	97.777				
534	97.414				
535	97.569				
536	97.312				
537	97.219				
538	97.071				
539	96.976				
540	96.842				
541	96.724				
542	96.648				
543	96.65				
544	96.431				
545	96.157				
546	96.255				
547	96.072				
548	96.115				
549	96.02				
550	95.916				
551	95.83				
552	95.79				
553	95.793				
554	95.882				
555	95.843				
556	95.763				
557	95.842				
558	95.789				
559	95.694				
560	95.819				
561	95.893				
562	95.943				
563	95.922				
564	95.905				
565	96.134				
566	95.966				
567	95.965				
568	96.247				
569	96.347				
570	96.354				
571	96.41				
572	96.559				
573	96.685				
574	96.622				
575	96.837				
576	96.882				
577	97.07				
578	96.992				
579	97.108				
580	97.231				
581	97.303				
582	97.276				
583	97.397				
584	97.416				
585	97.371				
586	97.745				
587	97.617				
588	97.69				
589	97.636				
590	97.635				
591	97.663				
592	97.689				
593	97.601				
594	97.669				
595	97.758				
596	97.486				
597	97.476				
598	97.344				
599	97.319				
600	97.368				
601	97.204				
602	97.162				
603	97.177				
604	97.052				
605	96.966				
606	96.784				
607	96.599				
608	96.516				
609	96.357				
610	96.203				
611	96.174				
612	96.062				
613	96.024				
614	95.847				
615	95.806				
616	95.636				
617	95.51				
618	95.492				
619	95.144				
620	95.194				
621	95.136				
622	95.169				
623	95.056				
624	94.936				
625	94.93				
626	94.775				
627	94.667				
628	94.741				
629	94.766				
630	94.835				
631	94.794				
632	94.823				
633	94.843				
634	94.834				
635	94.903				
636	95.009				
637	95.087				
638	95.249				
639	95.328				
640	95.378				
641	95.399				
642	95.377				
643	95.44				
644	95.636				
645	95.56				
646	95.726				
647	95.789				
648	95.864				
649	95.848				
650	95.911				
651	95.833				
652	95.912				
653	95.952				
654	96.108				
655	96.072				
656	95.87				
657	96.177				
658	95.898				
659	95.981				
660	95.765				
661	95.813				
662	95.8				
663	95.67				
664	95.518				
665	95.44				
666	95.391				
667	95.181				
668	95.048				
669	95.03				
670	95.009				
671	94.761				
672	94.489				
673	94.44				
674	94.154				
675	94.038				
676	93.936				
677	93.862				
678	93.689				
679	93.688				
680	93.582				
681	93.439				
682	93.43				
683	93.354				
684	93.107				
685	93.28				
686	93.252				
687	93.342				
688	93.352				
689	93.255				
690	93.308				
691	93.396				
692	93.577				
693	93.574				
694	93.701				
695	93.75				
696	93.979				
697	94.185				
698	94.33				
699	94.336				
700	94.365				
701	94.531				
702	94.688				
703	94.74				
704	94.876				
705	94.78				
706	94.714				
707	94.589				
708	94.436				
709	94.267				
710	93.916				
711	93.532				
712	93.011				
713	92.406				
714	91.777				
715	90.982				
716	89.921				
717	88.941				
718	87.773				
719	86.14				
720	84.95				
721	83.248				
722	81.626				
723	79.774				
724	77.977				
725	75.672				
726	73.721				
727	71.641				
728	69.588				
729	67.453				
730	65.415				
731	62.943				
732	60.844				
733	58.584				
734	56.104				
735	53.459				
736	51.25				
737	49.3				
738	47.213				
739	45.178				
740	42.85				
741	40.881				
742	39.22				
743	37.55				
744	35.366				
745	33.75				
746	32.14				
747	30.856				
748	29.205				
749	27.857				
750	26.699				
751	25.359				
752	24.098				
753	22.892				
754	21.819				
755	21.153				
756	20.11				
757	19.099				
758	18.451				
759	17.515				
760	16.815				
761	16.045				
762	15.131				
763	14.684				
764	13.953				
765	13.406				
766	12.882				
767	12.342				
768	11.92				
769	11.413				
770	11.021				
771	10.279				
772	10.206				
773	9.71				
774	9.398				
775	9.057				
776	8.795				
777	8.504				
778	7.951				
779	7.902				
780	7.432				
781	7.311				
782	7.143				
783	6.791				
784	6.636				
785	6.411				
786	6.176				
787	5.958				
788	5.859				
789	5.615				
790	5.492				
791	5.248				
792	5.407				
793	5.308				
794	4.879				
795	4.727				
796	4.8				
797	4.553				
798	4.485				
799	4.38				
800	4.274				
801	4.049				
802	4.064				
803	3.87				
804	3.932				
805	3.743				
806	3.697				
807	3.453				
808	3.484				
809	3.354				
810	3.253				
811	3.261				
812	3.098				
813	3.107				
814	3.097				
815	3.147				
816	3.127				
817	2.858				
818	2.92				
819	2.87				
820	2.749				
821	2.898				
822	2.639				
823	2.631				
824	2.575				
825	2.44				
826	2.447				
827	2.542				
828	2.402				
829	2.429				
830	2.341				
831	2.388				
832	2.275				
833	2.153				
834	2.295				
835	2.178				
836	2.157				
837	2.158				
838	2.06				
839	2.193				
840	2.095				
841	2.123				
842	1.986				
843	2.066				
844	2.352				
845	2.153				
846	2.028				
847	1.976				
848	2.053				
849	2.102				
850	2.063				
