Wavelength	Transmittance	hex_color	Manufacturer	Name	Filter Number
300	0.0		Chroma		ET500lp
301	0.0				
302	0.0				
303	0.0				
304	0.0				
305	0.0				
306	0.0				
307	0.0				
308	0.0				
309	0.0				
310	0.0				
311	0.0				
312	0.0				
313	0.0				
314	0.0				
315	0.0				
316	0.0				
317	0.0				
318	0.0				
319	0.0				
320	0.0				
321	0.0				
322	0.0				
323	0.0				
324	0.0				
325	0.0				
326	0.0				
327	0.0				
328	0.0				
329	0.0				
330	0.0				
331	0.0				
332	0.0				
333	0.0				
334	0.0				
335	0.0				
336	0.0				
337	0.0				
338	0.0				
339	0.0				
340	0.0				
341	0.0				
342	0.0				
343	0.0				
344	0.0				
345	0.0				
346	0.0				
347	0.0				
348	0.0				
349	0.0				
350	0.0				
351	0.0				
352	0.0				
353	0.0				
354	0.0				
355	0.0				
356	0.0				
357	0.0				
358	0.0				
359	0.0				
360	0.0				
361	0.0				
362	0.0				
363	0.0				
364	0.0				
365	0.0				
366	0.0				
367	0.0				
368	0.0				
369	0.0				
370	0.0				
371	0.0				
372	0.0				
373	0.0				
374	0.0				
375	0.0				
376	0.0				
377	0.0				
378	0.0				
379	0.0				
380	0.0				
381	0.0				
382	0.0				
383	0.0				
384	0.0				
385	0.0				
386	0.0				
387	0.0				
388	0.0				
389	0.0				
390	0.0				
391	0.0				
392	0.0				
393	0.0				
394	0.0				
395	0.0				
396	0.0				
397	0.0				
398	0.0				
399	0.0				
400	0.0				
401	0.0				
402	0.0				
403	0.0				
404	0.0				
405	0.0				
406	0.0				
407	0.0				
408	0.0				
409	0.0				
410	0.0				
411	0.0				
412	0.0				
413	0.0				
414	0.0				
415	0.0				
416	0.0				
417	0.0				
418	0.0				
419	0.0				
420	0.0				
421	0.0				
422	0.0				
423	0.0				
424	0.0				
425	0.0				
426	0.0				
427	0.0				
428	0.0				
429	0.0				
430	0.0				
431	0.0				
432	0.0				
433	0.0				
434	0.0				
435	0.0				
436	0.0				
437	0.0				
438	0.0				
439	0.0				
440	0.0				
441	0.0				
442	0.0				
443	0.0				
444	0.0				
445	0.0				
446	0.0				
447	0.0				
448	0.0				
449	0.0				
450	0.0				
451	0.0				
452	0.0				
453	0.0				
454	0.0				
455	0.0				
456	0.0				
457	0.0				
458	0.0				
459	0.0				
460	0.0				
461	0.0				
462	0.0				
463	0.0				
464	0.0				
465	0.0				
466	0.0				
467	0.0				
468	0.0				
469	0.0				
470	0.0				
471	0.0				
472	0.0				
473	0.0				
474	0.0				
475	0.0				
476	0.0				
477	0.0				
478	0.0				
479	0.0				
480	0.0				
481	0.0				
482	0.0				
483	0.0				
484	0.0				
485	0.0				
486	0.0				
487	0.0				
488	0.0				
489	0.0				
490	0.0				
491	0.0				
492	0.0				
493	0.0				
494	0.0				
495	0.001				
496	0.009				
497	0.081				
498	1.202				
499	21.875				
500	81.482				
501	97.402				
502	98.529				
503	98.843				
504	98.158				
505	97.26				
506	97.47				
507	98.43				
508	98.672				
509	98.592				
510	98.682				
511	98.68				
512	98.814				
513	98.513				
514	98.847				
515	98.67				
516	98.902				
517	98.527				
518	98.095				
519	97.945				
520	97.972				
521	98.408				
522	98.511				
523	98.536				
524	98.608				
525	98.298				
526	97.922				
527	98.007				
528	98.192				
529	98.532				
530	99.031				
531	98.849				
532	98.94				
533	98.898				
534	98.829				
535	98.778				
536	98.766				
537	98.818				
538	98.729				
539	98.61				
540	98.504				
541	98.645				
542	98.883				
543	98.822				
544	98.813				
545	98.388				
546	98.353				
547	98.128				
548	97.894				
549	97.901				
550	98.242				
551	98.501				
552	98.649				
553	98.943				
554	98.791				
555	98.8				
556	98.682				
557	98.611				
558	98.615				
559	98.27				
560	98.432				
561	98.579				
562	98.601				
563	98.674				
564	98.713				
565	98.892				
566	98.65				
567	98.741				
568	98.711				
569	98.597				
570	98.627				
571	98.624				
572	98.504				
573	98.899				
574	98.845				
575	98.653				
576	98.579				
577	98.738				
578	98.367				
579	98.284				
580	98.041				
581	98.27				
582	98.193				
583	98.15				
584	98.447				
585	98.597				
586	98.585				
587	98.471				
588	98.767				
589	98.553				
590	98.545				
591	98.473				
592	98.328				
593	98.582				
594	98.46				
595	98.532				
596	98.659				
597	98.564				
598	98.75				
599	98.594				
600	98.805				
601	98.667				
602	98.511				
603	98.568				
604	98.731				
605	98.587				
606	98.693				
607	98.631				
608	98.766				
609	98.623				
610	98.416				
611	98.595				
612	97.97				
613	97.925				
614	97.896				
615	97.547				
616	97.865				
617	97.726				
618	97.87				
619	98.128				
620	98.247				
621	98.622				
622	98.742				
623	98.445				
624	98.171				
625	97.762				
626	97.097				
627	96.777				
628	96.027				
629	95.879				
630	95.786				
631	95.99				
632	96.083				
633	96.634				
634	97.174				
635	97.953				
636	98.262				
637	98.481				
638	98.469				
639	98.568				
640	97.96				
641	97.634				
642	96.953				
643	96.445				
644	95.848				
645	95.807				
646	95.572				
647	95.937				
648	96.251				
649	96.573				
650	97.147				
651	97.859				
652	98.178				
653	98.3				
654	98.319				
655	98.105				
656	97.656				
657	96.935				
658	96.265				
659	95.832				
660	95.452				
661	95.262				
662	95.278				
663	95.492				
664	95.831				
665	96.526				
666	97.203				
667	97.755				
668	98.376				
669	98.274				
670	98.646				
671	98.19				
672	97.559				
673	96.594				
674	95.816				
675	94.951				
676	94.131				
677	93.483				
678	92.888				
679	92.876				
680	92.87				
681	93.401				
682	94.117				
683	94.918				
684	95.653				
685	96.572				
686	97.35				
687	97.97				
688	98.366				
689	98.039				
690	98.28				
691	97.554				
692	96.862				
693	96.188				
694	95.498				
695	94.848				
696	94.332				
697	93.968				
698	94.168				
699	94.097				
700	94.595				
701	94.79				
702	95.58				
703	96.086				
704	96.787				
705	97.233				
706	98.021				
707	98.454				
708	98.267				
709	98.492				
710	98.738				
711	97.872				
712	97.817				
713	97.801				
714	97.692				
715	97.605				
716	97.392				
717	97.2				
718	97.39				
719	97.064				
720	97.644				
721	97.93				
722	98.07				
723	98.441				
724	98.657				
725	98.899				
726	98.776				
727	98.729				
728	98.518				
729	98.198				
730	98.476				
731	98.455				
732	97.846				
733	97.749				
734	97.676				
735	97.598				
736	97.576				
737	97.878				
738	97.904				
739	98.01				
740	98.414				
741	97.949				
742	98.046				
743	98.171				
744	97.944				
745	97.812				
746	97.731				
747	97.702				
748	96.677				
749	96.432				
750	95.909				
751	95.859				
752	95.272				
753	95.583				
754	95.246				
755	96.031				
756	95.584				
757	95.299				
758	95.703				
759	96.294				
760	96.408				
761	96.021				
762	96.373				
763	96.977				
764	97.024				
765	96.872				
766	96.268				
767	96.177				
768	95.78				
769	95.929				
770	95.431				
771	94.989				
772	94.647				
773	93.305				
774	94.019				
775	93.301				
776	93.017				
777	93.723				
778	94.1				
779	93.599				
780	94.315				
781	94.621				
782	95.322				
783	96.152				
784	96.394				
785	96.45				
786	97.272				
787	97.207				
788	97.644				
789	96.57				
790	97.176				
791	97.261				
792	96.584				
793	95.62				
794	95.702				
795	94.768				
796	94.58				
797	94.026				
798	93.073				
799	92.371				
800	93.866				
801	93.96				
802	94.12				
803	94.427				
804	94.781				
805	95.271				
806	95.85				
807	96.422				
808	96.967				
809	97.465				
810	97.808				
811	98.147				
812	98.257				
813	98.298				
814	98.146				
815	97.775				
816	97.323				
817	96.758				
818	96.137				
819	95.405				
820	94.781				
821	94.119				
822	93.465				
823	92.953				
824	92.578				
825	92.257				
826	92.109				
827	92.137				
828	92.295				
829	92.521				
830	92.958				
831	93.498				
832	94.095				
833	94.709				
834	95.385				
835	95.991				
836	96.599				
837	97.065				
838	97.453				
839	97.622				
840	97.679				
841	97.588				
842	97.368				
843	96.923				
844	96.342				
845	95.682				
846	94.955				
847	94.127				
848	93.37				
849	92.622				
850	91.934				
851	91.281				
852	90.836				
853	90.447				
854	90.158				
855	90.106				
856	90.144				
857	90.316				
858	90.658				
859	91.055				
860	91.612				
861	92.27				
862	92.909				
863	93.661				
864	94.401				
865	95.026				
866	95.63				
867	96.194				
868	96.622				
869	96.951				
870	97.125				
871	97.095				
872	96.931				
873	96.688				
874	96.294				
875	95.824				
876	95.2				
877	94.592				
878	93.975				
879	93.374				
880	92.772				
881	92.247				
882	91.804				
883	91.415				
884	91.142				
885	90.962				
886	90.939				
887	91.003				
888	91.138				
889	91.4				
890	91.814				
891	92.2				
892	92.629				
893	93.212				
894	93.697				
895	94.258				
896	94.761				
897	95.193				
898	95.61				
899	95.929				
900	96.098				
901	96.18				
902	96.202				
903	96.064				
904	95.849				
905	95.496				
906	95.105				
907	94.641				
908	94.173				
909	93.699				
910	93.142				
911	92.651				
912	92.178				
913	91.759				
914	91.376				
915	91.064				
916	90.935				
917	90.798				
918	90.718				
919	90.808				
920	90.925				
921	91.132				
922	91.391				
923	91.703				
924	92.075				
925	92.429				
926	92.835				
927	93.215				
928	93.541				
929	93.857				
930	94.117				
931	94.321				
932	94.442				
933	94.505				
934	94.424				
935	94.232				
936	93.963				
937	93.638				
938	93.209				
939	92.715				
940	92.228				
941	91.65				
942	91.124				
943	90.527				
944	89.966				
945	89.357				
946	88.898				
947	88.468				
948	88.065				
949	87.725				
950	87.43				
951	87.284				
952	87.225				
953	87.156				
954	87.14				
955	87.245				
956	87.484				
957	87.69				
958	87.968				
959	88.254				
960	88.708				
961	89.078				
962	89.486				
963	89.806				
964	90.179				
965	90.478				
966	90.724				
967	90.934				
968	91.048				
969	91.155				
970	91.14				
971	91.074				
972	90.926				
973	90.705				
974	90.389				
975	90.08				
976	89.612				
977	89.168				
978	88.661				
979	88.255				
980	87.754				
981	87.3				
982	86.825				
983	86.361				
984	85.992				
985	85.652				
986	85.335				
987	85.098				
988	84.939				
989	84.834				
990	84.787				
991	84.755				
992	84.812				
993	84.965				
994	85.151				
995	85.366				
996	85.675				
997	86.043				
998	86.3				
999	86.66				
1000	87.006				
1001	87.383				
1002	87.731				
1003	88.099				
1004	88.359				
1005	88.617				
1006	88.841				
1007	88.983				
1008	89.083				
1009	89.151				
1010	89.12				
1011	89.071				
1012	88.928				
1013	88.682				
1014	88.509				
1015	88.184				
1016	87.847				
1017	87.5				
1018	87.14				
1019	86.764				
1020	86.384				
1021	86.015				
1022	85.626				
1023	85.246				
1024	84.972				
1025	84.685				
1026	84.445				
1027	84.201				
1028	84.008				
1029	83.966				
1030	83.924				
1031	83.914				
1032	83.969				
1033	84.055				
1034	84.189				
1035	84.394				
1036	84.594				
1037	84.823				
1038	85.132				
1039	85.43				
1040	85.753				
1041	86.069				
1042	86.371				
1043	86.716				
1044	87.005				
1045	87.317				
1046	87.545				
1047	87.767				
1048	87.981				
1049	88.135				
1050	88.24				
1051	88.284				
1052	88.3				
1053	88.258				
1054	88.197				
1055	87.981				
1056	87.794				
1057	87.635				
1058	87.35				
1059	87.076				
1060	86.756				
1061	86.434				
1062	86.064				
1063	85.685				
1064	85.365				
1065	85.042				
1066	84.715				
1067	84.426				
1068	84.103				
1069	83.865				
1070	83.604				
1071	83.449				
1072	83.351				
1073	83.288				
1074	83.209				
1075	83.173				
1076	83.167				
1077	83.235				
1078	83.355				
1079	83.477				
1080	83.644				
1081	83.821				
1082	84.027				
1083	84.244				
1084	84.54				
1085	84.815				
1086	85.098				
1087	85.354				
1088	85.613				
1089	85.842				
1090	86.086				
1091	86.38				
1092	86.522				
1093	86.745				
1094	86.92				
1095	87.013				
1096	87.064				
1097	87.106				
1098	87.112				
1099	87.026				
1100	86.895				
