Wavelength	Transmittance	hex_color	Manufacturer	Name	Filter Number
300	0.044		Chroma		270440
301	0.14				
302	0.236				
303	0.39				
304	0.614				
305	0.95				
306	1.427				
307	2.072				
308	2.96				
309	4.085				
310	5.541				
311	7.162				
312	9.169				
313	11.455				
314	13.968				
315	16.726				
316	19.45				
317	22.261				
318	25.29				
319	27.963				
320	30.814				
321	33.132				
322	36.047				
323	38.1				
324	40.045				
325	42.141				
326	44.021				
327	45.803				
328	47.594				
329	48.811				
330	50.709				
331	51.884				
332	53.022				
333	54.646				
334	55.82				
335	57.309				
336	58.34				
337	59.947				
338	61.406				
339	62.532				
340	64.184				
341	65.456				
342	67.24				
343	67.953				
344	69.31				
345	70.841				
346	72.638				
347	73.763				
348	75.229				
349	76.764				
350	77.784				
351	78.982				
352	80.689				
353	81.97				
354	82.98				
355	83.952				
356	85.505				
357	86.111				
358	87.315				
359	88.221				
360	89.035				
361	89.869				
362	90.477				
363	90.867				
364	91.798				
365	92.418				
366	92.342				
367	93.153				
368	93.469				
369	93.769				
370	93.898				
371	93.986				
372	93.999				
373	94.329				
374	94.142				
375	94.109				
376	94.279				
377	94.142				
378	94.488				
379	93.662				
380	94.051				
381	93.944				
382	94.36				
383	94.252				
384	93.97				
385	93.969				
386	94.023				
387	94.182				
388	94.068				
389	94.147				
390	94.301				
391	94.268				
392	94.277				
393	94.021				
394	94.093				
395	94.188				
396	94.077				
397	94.182				
398	94.565				
399	93.932				
400	94.397				
401	94.706				
402	94.401				
403	94.44				
404	94.579				
405	94.782				
406	94.689				
407	94.798				
408	94.887				
409	94.909				
410	95.027				
411	94.875				
412	94.886				
413	95.421				
414	94.94				
415	95.179				
416	95.311				
417	95.434				
418	95.43				
419	95.517				
420	95.344				
421	95.57				
422	95.991				
423	95.637				
424	95.974				
425	95.915				
426	96.056				
427	96.188				
428	96.162				
429	96.316				
430	96.433				
431	96.336				
432	96.157				
433	96.46				
434	96.614				
435	96.256				
436	96.371				
437	96.411				
438	96.347				
439	96.531				
440	96.696				
441	96.558				
442	96.296				
443	96.448				
444	96.75				
445	96.433				
446	96.689				
447	96.579				
448	96.454				
449	96.37				
450	96.57				
451	96.448				
452	96.783				
453	96.473				
454	96.554				
455	96.835				
456	96.713				
457	96.886				
458	96.529				
459	96.643				
460	96.797				
461	96.551				
462	96.538				
463	96.664				
464	96.676				
465	96.843				
466	96.831				
467	96.539				
468	96.712				
469	96.802				
470	96.789				
471	96.631				
472	97.05				
473	96.672				
474	96.838				
475	96.95				
476	96.949				
477	97.134				
478	97.084				
479	96.989				
480	97.114				
481	97.145				
482	97.039				
483	97.11				
484	97.278				
485	97.168				
486	97.247				
487	97.311				
488	97.518				
489	97.422				
490	97.364				
491	97.451				
492	97.594				
493	97.626				
494	97.466				
495	97.582				
496	97.694				
497	97.825				
498	97.833				
499	97.868				
500	97.647				
501	97.793				
502	97.984				
503	97.89				
504	97.967				
505	97.987				
506	98.382				
507	98.129				
508	97.959				
509	97.787				
510	97.983				
511	98.192				
512	98.144				
513	98.192				
514	98.279				
515	98.388				
516	98.462				
517	98.372				
518	98.254				
519	98.312				
520	98.377				
521	98.479				
522	98.452				
523	98.397				
524	98.458				
525	98.48				
526	98.296				
527	98.267				
528	98.321				
529	98.494				
530	98.376				
531	98.134				
532	98.458				
533	98.434				
534	98.419				
535	98.464				
536	98.323				
537	98.559				
538	98.55				
539	98.358				
540	98.252				
541	98.276				
542	98.474				
543	98.301				
544	98.451				
545	98.309				
546	98.264				
547	98.396				
548	98.121				
549	98.322				
550	98.232				
551	98.239				
552	98.062				
553	98.089				
554	98.381				
555	98.229				
556	97.967				
557	98.122				
558	98.148				
559	98.01				
560	98.071				
561	97.952				
562	98.001				
563	98.033				
564	97.943				
565	97.882				
566	97.722				
567	98.017				
568	97.9				
569	97.83				
570	97.825				
571	98.034				
572	98.027				
573	97.801				
574	97.765				
575	97.996				
576	97.723				
577	97.875				
578	97.787				
579	97.576				
580	97.921				
581	97.67				
582	97.751				
583	97.769				
584	97.656				
585	97.623				
586	97.79				
587	97.749				
588	97.692				
589	97.61				
590	97.794				
591	97.67				
592	97.581				
593	97.688				
594	97.85				
595	97.88				
596	97.789				
597	97.836				
598	97.544				
599	97.816				
600	97.76				
601	97.806				
602	97.699				
603	97.717				
604	97.887				
605	97.85				
606	97.626				
607	97.795				
608	97.684				
609	97.779				
610	97.732				
611	97.905				
612	97.653				
613	97.783				
614	97.786				
615	97.957				
616	97.8				
617	97.924				
618	98.016				
619	97.979				
620	97.778				
621	97.859				
622	98.014				
623	97.955				
624	98.084				
625	98.022				
626	97.963				
627	98.011				
628	97.921				
629	97.95				
630	98.082				
631	98.179				
632	98.154				
633	98.203				
634	98.336				
635	98.132				
636	98.249				
637	98.22				
638	98.555				
639	98.258				
640	98.262				
641	98.47				
642	98.318				
643	98.23				
644	98.588				
645	98.424				
646	98.503				
647	98.592				
648	98.294				
649	98.542				
650	98.43				
651	98.701				
652	98.483				
653	98.585				
654	98.693				
655	98.557				
656	98.694				
657	98.576				
658	98.657				
659	98.742				
660	98.801				
661	98.877				
662	98.851				
663	98.675				
664	98.953				
665	98.898				
666	98.966				
667	99.006				
668	98.674				
669	98.877				
670	99.107				
671	98.952				
672	98.773				
673	99.18				
674	98.885				
675	98.915				
676	99.218				
677	99.12				
678	99.041				
679	99.367				
680	99.03				
681	99.139				
682	99.408				
683	99.2				
684	99.034				
685	99.109				
686	99.108				
687	98.993				
688	99.047				
689	99.003				
690	99.344				
691	99.063				
692	99.356				
693	99.155				
694	99.197				
695	99.204				
696	99.337				
697	99.102				
698	98.981				
699	99.22				
700	99.152				
701	99.379				
702	99.561				
703	99.098				
704	99.032				
705	99.345				
706	99.726				
707	99.111				
708	99.276				
709	99.121				
710	99.057				
711	99.48				
712	99.34				
713	98.915				
714	99.307				
715	99.098				
716	99.396				
717	99.373				
718	99.284				
719	99.193				
720	99.394				
721	99.098				
722	99.229				
723	99.163				
724	99.139				
725	99.138				
726	99.418				
727	99.381				
728	99.174				
729	98.726				
730	98.791				
731	98.95				
732	98.896				
733	99.205				
734	99.31				
735	99.132				
736	98.882				
737	98.996				
738	99.291				
739	99.232				
740	98.932				
741	98.507				
742	98.948				
743	98.858				
744	98.781				
745	98.743				
746	99.236				
747	99.383				
748	98.659				
749	99.043				
750	98.867				
751	98.407				
752	98.842				
753	98.624				
754	98.611				
755	98.546				
756	98.825				
757	98.455				
758	98.766				
759	98.896				
760	98.798				
761	98.814				
762	98.597				
763	98.924				
764	98.583				
765	98.654				
766	98.467				
767	98.582				
768	98.532				
769	98.564				
770	98.075				
771	98.754				
772	98.213				
773	99.065				
774	97.715				
775	98.52				
776	98.608				
777	98.854				
778	98.831				
779	98.666				
780	98.374				
781	98.811				
782	98.213				
783	98.48				
784	98.618				
785	98.777				
786	97.582				
787	98.32				
788	98.339				
789	97.883				
790	98.348				
791	99.0				
792	97.884				
793	98.123				
794	98.004				
795	97.981				
796	98.013				
797	98.224				
798	97.671				
799	97.839				
800	98.15				
801	98.163				
802	98.146				
803	98.121				
804	98.135				
805	98.092				
806	98.099				
807	98.114				
808	98.046				
809	98.032				
810	98.01				
811	98.033				
812	98.054				
813	98.033				
814	98.029				
815	97.967				
816	97.954				
817	97.962				
818	97.967				
819	97.934				
820	97.948				
821	97.912				
822	97.891				
823	97.899				
824	97.93				
825	97.942				
826	97.904				
827	97.906				
828	97.893				
829	97.849				
830	97.773				
831	97.853				
832	97.832				
833	97.835				
834	97.816				
835	97.805				
836	97.815				
837	97.759				
838	97.795				
839	97.761				
840	97.782				
841	97.747				
842	97.792				
843	97.768				
844	97.764				
845	97.795				
846	97.746				
847	97.755				
848	97.695				
849	97.767				
850	97.711				
851	97.724				
852	97.746				
853	97.723				
854	97.751				
855	97.703				
856	97.686				
857	97.645				
858	97.692				
859	97.637				
860	97.671				
861	97.689				
862	97.675				
863	97.651				
864	97.65				
865	97.627				
866	97.687				
867	97.611				
868	97.656				
869	97.662				
870	97.631				
871	97.631				
872	97.636				
873	97.593				
874	97.663				
875	97.595				
876	97.609				
877	97.59				
878	97.6				
879	97.572				
880	97.641				
881	97.62				
882	97.562				
883	97.62				
884	97.584				
885	97.594				
886	97.665				
887	97.615				
888	97.607				
889	97.628				
890	97.623				
891	97.625				
892	97.597				
893	97.629				
894	97.618				
895	97.628				
896	97.592				
897	97.646				
898	97.649				
899	97.618				
900	97.676				
901	97.655				
902	97.694				
903	97.649				
904	97.671				
905	97.663				
906	97.687				
907	97.707				
908	97.792				
909	97.756				
910	97.732				
911	97.746				
912	97.74				
913	97.803				
914	97.756				
915	97.782				
916	97.792				
917	97.774				
918	97.795				
919	97.823				
920	97.84				
921	97.842				
922	97.834				
923	97.852				
924	97.854				
925	97.874				
926	97.894				
927	97.877				
928	97.909				
929	97.859				
930	97.927				
931	97.883				
932	97.924				
933	97.933				
934	97.952				
935	97.946				
936	97.944				
937	97.94				
938	97.952				
939	97.998				
940	97.986				
941	97.994				
942	98.024				
943	98.036				
944	98.021				
945	98.027				
946	98.038				
947	98.072				
948	98.08				
949	98.087				
950	98.101				
951	98.113				
952	98.09				
953	98.084				
954	98.111				
955	98.137				
956	98.123				
957	98.145				
958	98.139				
959	98.169				
960	98.17				
961	98.196				
962	98.16				
963	98.204				
964	98.172				
965	98.168				
966	98.232				
967	98.215				
968	98.169				
969	98.287				
970	98.228				
971	98.248				
972	98.31				
973	98.232				
974	98.238				
975	98.274				
976	98.256				
977	98.282				
978	98.28				
979	98.281				
980	98.337				
981	98.321				
982	98.286				
983	98.333				
984	98.313				
985	98.369				
986	98.248				
987	98.364				
988	98.332				
989	98.391				
990	98.324				
991	98.378				
992	98.399				
993	98.441				
994	98.416				
995	98.365				
996	98.418				
997	98.421				
998	98.43				
999	98.405				
1000	98.409				
1001	98.387				
1002	98.42				
1003	98.382				
1004	98.453				
1005	98.431				
1006	98.453				
1007	98.482				
1008	98.461				
1009	98.407				
1010	98.453				
1011	98.442				
1012	98.452				
1013	98.425				
1014	98.423				
1015	98.456				
1016	98.464				
1017	98.448				
1018	98.492				
1019	98.471				
1020	98.465				
1021	98.424				
1022	98.487				
1023	98.423				
1024	98.426				
1025	98.475				
1026	98.437				
1027	98.402				
1028	98.418				
1029	98.453				
1030	98.453				
1031	98.417				
1032	98.445				
1033	98.408				
1034	98.445				
1035	98.447				
1036	98.414				
1037	98.458				
1038	98.419				
1039	98.439				
1040	98.378				
1041	98.426				
1042	98.43				
1043	98.365				
1044	98.417				
1045	98.382				
1046	98.36				
1047	98.327				
1048	98.331				
1049	98.329				
1050	98.368				
1051	98.334				
1052	98.35				
1053	98.383				
1054	98.331				
1055	98.26				
1056	98.317				
1057	98.318				
1058	98.287				
1059	98.302				
1060	98.276				
1061	98.25				
1062	98.242				
1063	98.235				
1064	98.223				
1065	98.263				
1066	98.24				
1067	98.174				
1068	98.198				
1069	98.192				
1070	98.141				
1071	98.145				
1072	98.132				
1073	98.15				
1074	98.116				
1075	98.143				
1076	98.115				
1077	98.138				
1078	98.034				
1079	98.043				
1080	98.05				
1081	98.061				
1082	98.003				
1083	98.053				
1084	98.016				
1085	97.976				
1086	97.923				
1087	97.921				
1088	97.94				
1089	97.858				
1090	97.939				
1091	97.911				
1092	97.845				
1093	97.833				
1094	97.912				
1095	97.865				
1096	97.74				
1097	97.775				
1098	97.803				
1099	97.769				
1100	97.722				
