Wavelength	Transmittance	hex_color	Manufacturer	Name	Filter Number
380	3.756		Chroma		ZT532/640rpc
381	10.071				
382	12.547				
383	9.769				
384	8.545				
385	6.138				
386	2.33				
387	0.986				
388	1.338				
389	4.773				
390	8.614				
391	6.718				
392	2.966				
393	3.823				
394	8.235				
395	8.121				
396	3.439				
397	1.232				
398	1.44				
399	4.624				
400	15.472				
401	29.271				
402	29.078				
403	24.833				
404	26.6				
405	25.769				
406	19.896				
407	11.797				
408	5.166				
409	1.694				
410	0.835				
411	0.664				
412	0.608				
413	0.697				
414	0.717				
415	0.691				
416	0.622				
417	0.774				
418	1.343				
419	3.231				
420	5.748				
421	6.72				
422	5.225				
423	3.193				
424	1.713				
425	1.062				
426	0.999				
427	1.64				
428	5.013				
429	13.374				
430	15.972				
431	10.863				
432	6.454				
433	3.472				
434	4.007				
435	11.994				
436	19.734				
437	15.423				
438	5.116				
439	1.635				
440	1.468				
441	2.627				
442	7.202				
443	19.475				
444	31.998				
445	37.911				
446	36.64				
447	24.34				
448	10.424				
449	3.287				
450	1.518				
451	1.243				
452	1.666				
453	3.997				
454	11.04				
455	15.761				
456	10.453				
457	4.017				
458	1.979				
459	2.166				
460	3.868				
461	7.283				
462	9.632				
463	7.83				
464	4.303				
465	2.415				
466	2.088				
467	2.598				
468	4.344				
469	9.448				
470	19.403				
471	30.504				
472	31.826				
473	25.064				
474	19.548				
475	18.158				
476	18.159				
477	17.01				
478	14.68				
479	13.04				
480	13.142				
481	15.496				
482	21.037				
483	26.93				
484	27.53				
485	20.562				
486	13.941				
487	9.676				
488	7.192				
489	6.173				
490	6.059				
491	7.845				
492	11.303				
493	14.799				
494	17.808				
495	17.794				
496	11.592				
497	5.638				
498	2.823				
499	1.667				
500	1.236				
501	1.047				
502	0.986				
503	1.016				
504	1.093				
505	1.17				
506	1.211				
507	1.188				
508	1.135				
509	1.104				
510	1.082				
511	1.103				
512	1.165				
513	1.25				
514	1.267				
515	1.219				
516	1.116				
517	0.971				
518	0.86				
519	0.784				
520	0.752				
521	0.774				
522	0.819				
523	0.898				
524	0.96				
525	0.988				
526	0.958				
527	0.886				
528	0.795				
529	0.742				
530	0.709				
531	0.716				
532	0.749				
533	0.784				
534	0.882				
535	1.065				
536	1.384				
537	1.961				
538	2.974				
539	4.814				
540	8.61				
541	16.249				
542	26.239				
543	37.522				
544	46.242				
545	50.134				
546	53.48				
547	62.514				
548	79.064				
549	91.695				
550	94.906				
551	95.135				
552	96.018				
553	96.307				
554	95.288				
555	93.816				
556	93.155				
557	93.917				
558	95.421				
559	96.886				
560	97.478				
561	97.074				
562	96.218				
563	95.556				
564	95.57				
565	96.143				
566	96.838				
567	97.314				
568	97.283				
569	96.762				
570	96.119				
571	95.752				
572	95.773				
573	96.187				
574	96.75				
575	97.2				
576	97.239				
577	96.752				
578	96.031				
579	95.524				
580	95.213				
581	95.373				
582	95.865				
583	96.447				
584	96.895				
585	96.91				
586	96.421				
587	95.556				
588	94.287				
589	93.843				
590	93.585				
591	93.926				
592	94.625				
593	95.554				
594	96.317				
595	96.61				
596	96.32				
597	95.755				
598	95.042				
599	94.499				
600	94.433				
601	95.164				
602	96.101				
603	96.885				
604	97.077				
605	96.827				
606	95.735				
607	94.305				
608	93.114				
609	92.65				
610	93.03				
611	94.321				
612	95.832				
613	96.816				
614	96.807				
615	95.557				
616	93.532				
617	91.843				
618	91.466				
619	92.721				
620	94.042				
621	91.686				
622	82.276				
623	67.008				
624	49.795				
625	35.424				
626	24.506				
627	17.105				
628	12.245				
629	9.136				
630	6.977				
631	5.32				
632	4.383				
633	3.727				
634	3.268				
635	2.94				
636	2.731				
637	2.605				
638	2.545				
639	2.546				
640	2.633				
641	2.767				
642	2.985				
643	3.299				
644	3.748				
645	4.368				
646	5.227				
647	6.514				
648	8.505				
649	10.974				
650	14.338				
651	19.142				
652	25.391				
653	33.701				
654	42.957				
655	52.811				
656	63.753				
657	75.193				
658	86.086				
659	93.661				
660	95.916				
661	95.166				
662	93.921				
663	93.502				
664	94.16				
665	95.305				
666	96.603				
667	97.487				
668	97.765				
669	97.415				
670	96.736				
671	96.092				
672	95.551				
673	95.503				
674	95.862				
675	96.389				
676	97.198				
677	97.843				
678	98.19				
679	98.169				
680	97.757				
681	97.082				
682	96.302				
683	95.523				
684	95.028				
685	94.74				
686	94.796				
687	95.158				
688	95.652				
689	96.203				
690	96.85				
691	97.301				
692	97.509				
693	97.47				
694	97.222				
695	96.688				
696	96.188				
697	95.615				
698	95.284				
699	95.187				
700	95.248				
701	95.605				
702	96.199				
703	96.781				
704	97.303				
705	97.79				
706	97.961				
707	97.93				
708	97.55				
709	97.046				
710	96.393				
711	95.851				
712	95.405				
713	95.211				
714	95.261				
715	95.562				
716	96.138				
717	96.772				
718	97.378				
719	97.914				
720	98.209				
721	98.243				
722	97.921				
723	97.336				
724	96.513				
725	95.728				
726	94.874				
727	94.105				
728	93.682				
729	93.589				
730	93.767				
731	94.195				
732	94.909				
733	95.707				
734	96.597				
735	97.327				
736	97.964				
737	98.331				
738	98.442				
739	98.282				
740	97.925				
741	97.291				
742	96.671				
743	96.012				
744	95.418				
745	95.015				
746	94.764				
747	94.728				
748	94.924				
749	95.208				
750	95.636				
751	96.171				
752	96.719				
753	97.123				
754	97.482				
755	97.638				
756	97.662				
757	97.526				
758	97.273				
759	96.978				
760	96.669				
761	96.298				
762	96.003				
763	95.813				
764	95.679				
765	95.684				
766	95.722				
767	95.796				
768	96.012				
769	96.267				
770	96.431				
771	96.501				
772	96.51				
773	96.582				
774	96.67				
775	96.746				
776	96.82				
777	96.924				
778	97.069				
779	97.221				
780	97.363				
781	97.461				
782	97.558				
783	97.586				
784	97.547				
785	97.432				
786	97.247				
787	96.991				
788	96.727				
789	96.408				
790	96.222				
791	96.064				
792	96.034				
793	96.034				
794	96.149				
795	96.345				
796	96.431				
797	96.516				
798	96.559				
799	96.525				
800	96.492				
801	96.326				
802	95.965				
803	95.668				
804	95.27				
805	94.334				
806	92.542				
807	89.076				
808	83.346				
809	75.423				
810	66.398				
811	57.733				
812	50.392				
813	45.573				
814	42.413				
815	40.584				
816	39.823				
817	39.894				
818	40.693				
819	42.089				
820	43.94				
821	45.989				
822	47.663				
823	48.112				
824	46.436				
825	42.133				
826	35.722				
827	28.434				
828	21.618				
829	15.7				
830	11.628				
831	8.542				
832	6.298				
833	4.435				
834	3.248				
835	2.47				
836	1.899				
837	1.469				
838	1.154				
839	0.931				
840	0.742				
841	0.589				
842	0.488				
843	0.408				
844	0.334				
845	0.261				
846	0.222				
847	0.187				
848	0.163				
849	0.147				
850	0.123				
851	0.095				
852	0.09				
853	0.095				
854	0.057				
855	0.05				
856	0.045				
857	0.044				
858	0.049				
859	0.041				
860	0.038				
861	0.026				
862	0.039				
863	0.024				
864	0.023				
865	0.022				
866	0.015				
867	0.02				
868	0.013				
869	0.017				
870	0.021				
871	0.016				
872	0.016				
873	0.012				
874	0.007				
875	0.02				
876	0.016				
877	0.025				
878	0.018				
879	0.022				
880	0.013				
881	0.02				
882	0.017				
883	0.015				
884	0.024				
885	0.026				
886	0.028				
887	0.024				
888	0.023				
889	0.024				
890	0.037				
891	0.038				
892	0.049				
893	0.058				
894	0.062				
895	0.069				
896	0.088				
897	0.105				
898	0.128				
899	0.157				
900	0.206				
