Wavelength	Transmittance	hex_color	Manufacturer	Name	Filter Number
380	40.622		Chroma		T647lpxr
381	41.543				
382	42.605				
383	37.103				
384	37.745				
385	42.842				
386	47.507				
387	52.045				
388	46.988				
389	35.762				
390	29.606				
391	35.356				
392	40.391				
393	32.03				
394	20.694				
395	18.732				
396	27.683				
397	35.745				
398	30.296				
399	21.314				
400	21.632				
401	34.178				
402	45.858				
403	44.167				
404	34.117				
405	29.801				
406	34.311				
407	45.163				
408	50.218				
409	41.272				
410	28.196				
411	19.285				
412	14.498				
413	16.388				
414	21.021				
415	25.714				
416	24.824				
417	15.248				
418	6.914				
419	6.139				
420	5.672				
421	8.654				
422	13.643				
423	9.67				
424	2.39				
425	0.454				
426	0.216				
427	0.098				
428	0.072				
429	0.056				
430	0.128				
431	0.145				
432	0.188				
433	0.152				
434	0.119				
435	0.103				
436	0.085				
437	0.077				
438	0.07				
439	0.079				
440	0.109				
441	0.185				
442	0.37				
443	0.807				
444	2.038				
445	4.421				
446	6.293				
447	5.855				
448	4.362				
449	4.111				
450	5.314				
451	8.896				
452	15.783				
453	24.931				
454	31.073				
455	30.465				
456	31.589				
457	38.047				
458	39.014				
459	30.897				
460	23.121				
461	21.006				
462	20.907				
463	24.419				
464	33.473				
465	37.44				
466	29.542				
467	19.549				
468	15.893				
469	17.897				
470	25.442				
471	32.813				
472	28.228				
473	16.038				
474	7.246				
475	4.47				
476	3.922				
477	4.844				
478	7.64				
479	9.916				
480	8.419				
481	4.694				
482	2.032				
483	1.094				
484	0.763				
485	0.687				
486	0.773				
487	1.153				
488	1.759				
489	2.162				
490	1.775				
491	0.958				
492	0.46				
493	0.282				
494	0.199				
495	0.18				
496	0.199				
497	0.286				
498	0.437				
499	0.666				
500	0.775				
501	0.626				
502	0.362				
503	0.2				
504	0.123				
505	0.091				
506	0.072				
507	0.087				
508	0.1				
509	0.167				
510	0.245				
511	0.347				
512	0.371				
513	0.299				
514	0.195				
515	0.112				
516	0.075				
517	0.071				
518	0.072				
519	0.074				
520	0.092				
521	0.133				
522	0.209				
523	0.296				
524	0.325				
525	0.265				
526	0.178				
527	0.115				
528	0.076				
529	0.06				
530	0.058				
531	0.061				
532	0.067				
533	0.089				
534	0.13				
535	0.209				
536	0.299				
537	0.374				
538	0.343				
539	0.257				
540	0.167				
541	0.115				
542	0.09				
543	0.077				
544	0.074				
545	0.074				
546	0.094				
547	0.12				
548	0.18				
549	0.287				
550	0.448				
551	0.564				
552	0.545				
553	0.408				
554	0.265				
555	0.186				
556	0.148				
557	0.129				
558	0.122				
559	0.138				
560	0.148				
561	0.184				
562	0.264				
563	0.388				
564	0.639				
565	1.015				
566	1.431				
567	1.59				
568	1.387				
569	1.039				
570	0.795				
571	0.644				
572	0.583				
573	0.556				
574	0.58				
575	0.637				
576	0.759				
577	0.91				
578	1.128				
579	1.342				
580	1.55				
581	1.69				
582	1.728				
583	1.687				
584	1.61				
585	1.509				
586	1.44				
587	1.4				
588	1.39				
589	1.388				
590	1.421				
591	1.452				
592	1.478				
593	1.498				
594	1.496				
595	1.493				
596	1.498				
597	1.501				
598	1.56				
599	1.632				
600	1.775				
601	2.163				
602	2.262				
603	2.507				
604	2.699				
605	2.762				
606	2.641				
607	2.344				
608	1.983				
609	1.631				
610	1.34				
611	1.126				
612	0.975				
613	0.867				
614	0.777				
615	0.746				
616	0.706				
617	0.71				
618	0.721				
619	0.749				
620	0.779				
621	0.841				
622	0.917				
623	1.023				
624	1.127				
625	1.265				
626	1.415				
627	1.584				
628	1.76				
629	1.936				
630	2.139				
631	2.372				
632	2.604				
633	2.861				
634	3.153				
635	3.526				
636	3.967				
637	4.517				
638	5.354				
639	6.379				
640	7.537				
641	9.047				
642	11.245				
643	14.058				
644	17.608				
645	22.221				
646	28.012				
647	35.166				
648	43.872				
649	54.679				
650	68.99				
651	82.751				
652	92.764				
653	96.476				
654	96.532				
655	95.783				
656	95.413				
657	95.686				
658	96.167				
659	96.598				
660	96.901				
661	97.072				
662	97.276				
663	97.49				
664	97.711				
665	97.811				
666	97.704				
667	97.649				
668	97.5				
669	97.277				
670	97.164				
671	97.125				
672	97.163				
673	97.313				
674	97.516				
675	97.755				
676	97.91				
677	98.042				
678	98.07				
679	97.928				
680	97.682				
681	97.39				
682	97.065				
683	96.808				
684	96.644				
685	96.506				
686	96.587				
687	96.776				
688	97.082				
689	97.423				
690	97.811				
691	98.191				
692	98.365				
693	98.567				
694	98.652				
695	98.558				
696	98.344				
697	98.014				
698	97.637				
699	97.295				
700	97.006				
701	96.802				
702	96.709				
703	96.75				
704	96.851				
705	97.03				
706	97.274				
707	97.505				
708	97.808				
709	98.032				
710	98.214				
711	98.405				
712	98.47				
713	98.368				
714	98.297				
715	98.113				
716	97.833				
717	97.674				
718	97.513				
719	97.497				
720	97.466				
721	97.415				
722	97.439				
723	97.531				
724	97.627				
725	97.672				
726	97.738				
727	97.776				
728	97.733				
729	97.693				
730	97.624				
731	97.532				
732	97.427				
733	97.364				
734	97.348				
735	97.332				
736	97.352				
737	97.375				
738	97.511				
739	97.572				
740	97.704				
741	97.872				
742	98.026				
743	98.161				
744	98.267				
745	98.293				
746	98.331				
747	98.326				
748	98.19				
749	98.058				
750	97.889				
751	97.746				
752	97.627				
753	97.44				
754	97.319				
755	97.244				
756	97.213				
757	97.196				
758	97.275				
759	97.354				
760	97.551				
761	97.753				
762	97.919				
763	98.055				
764	98.242				
765	98.349				
766	98.439				
767	98.504				
768	98.477				
769	98.444				
770	98.309				
771	98.155				
772	98.042				
773	97.92				
774	97.827				
775	97.739				
776	97.651				
777	97.607				
778	97.584				
779	97.607				
780	97.684				
781	97.737				
782	97.82				
783	97.899				
784	97.975				
785	98.096				
786	98.173				
787	98.218				
788	98.274				
789	98.261				
790	98.213				
791	98.22				
792	98.145				
793	98.079				
794	97.978				
795	97.913				
796	97.881				
797	97.738				
798	97.498				
799	97.479				
800	97.61				
801	97.642				
802	97.619				
803	97.67				
804	97.674				
805	97.659				
806	97.703				
807	97.748				
808	97.794				
809	97.762				
810	97.718				
811	97.678				
812	97.609				
813	97.519				
814	97.344				
815	97.28				
816	97.105				
817	97.062				
818	97.209				
819	97.07				
820	96.959				
821	96.944				
822	96.875				
823	96.845				
824	96.957				
825	97.067				
826	97.102				
827	97.151				
828	97.306				
829	97.353				
830	97.467				
831	97.715				
832	97.794				
833	97.809				
834	97.77				
835	97.78				
836	97.756				
837	97.711				
838	97.627				
839	97.5				
840	97.351				
841	97.228				
842	97.133				
843	96.982				
844	96.885				
845	96.983				
846	96.699				
847	96.819				
848	96.848				
849	96.806				
850	96.974				
851	97.004				
852	97.041				
853	97.129				
854	97.347				
855	97.506				
856	97.686				
857	97.777				
858	97.84				
859	97.944				
860	97.886				
861	97.997				
862	97.975				
863	97.942				
864	97.828				
865	97.647				
866	97.442				
867	97.292				
868	97.078				
869	96.826				
870	96.674				
871	96.499				
872	96.402				
873	96.402				
874	96.201				
875	96.097				
876	96.147				
877	96.166				
878	96.271				
879	96.373				
880	96.403				
881	96.502				
882	96.857				
883	97.215				
884	97.328				
885	97.361				
886	97.456				
887	97.531				
888	97.638				
889	97.75				
890	97.747				
891	97.738				
892	97.718				
893	97.657				
894	97.554				
895	97.445				
896	97.307				
897	97.092				
898	96.916				
899	96.742				
900	96.653				
901	96.537				
902	96.355				
903	96.219				
904	96.166				
905	96.077				
906	96.037				
907	96.03				
908	96.035				
909	96.07				
910	96.043				
911	96.075				
912	96.168				
913	96.22				
914	96.334				
915	96.407				
916	96.5				
917	96.589				
918	96.637				
919	96.655				
920	96.648				
921	96.62				
922	96.592				
923	96.451				
924	96.44				
925	96.287				
926	96.353				
927	96.299				
928	96.271				
929	96.208				
930	96.124				
931	96.034				
932	96.151				
933	96.127				
934	96.117				
935	96.154				
936	96.262				
937	96.322				
938	96.355				
939	96.29				
940	96.164				
941	96.108				
942	96.05				
943	95.987				
944	95.747				
945	95.542				
946	95.362				
947	95.014				
948	94.62				
949	94.302				
950	93.944				
951	93.621				
952	93.154				
953	92.762				
954	92.319				
955	91.946				
956	91.58				
957	91.21				
958	90.861				
959	90.581				
960	90.231				
961	90.18				
962	89.921				
963	89.781				
964	89.647				
965	89.478				
966	89.679				
967	89.525				
968	89.327				
969	89.129				
970	88.774				
971	88.438				
972	87.898				
973	87.43				
974	86.697				
975	85.934				
976	85.07				
977	84.07				
978	83.138				
979	82.156				
980	81.087				
981	80.056				
982	78.994				
983	77.955				
984	77.007				
985	76.151				
986	75.225				
987	74.348				
988	73.449				
989	72.644				
990	71.883				
991	71.159				
992	70.499				
993	69.847				
994	69.339				
995	68.941				
996	68.657				
997	68.53				
998	68.507				
999	68.703				
1000	68.954				
