Wavelength	Transmittance	hex_color	Manufacturer	Name	Filter Number
380	2.945		Chroma		ZT561rdc
381	3.468				
382	4.225				
383	1.851				
384	0.117				
385	0.0				
386	0.007				
387	0.0				
388	0.007				
389	0.012				
390	0.012				
391	0.022				
392	0.01				
393	0.0				
394	0.002				
395	0.034				
396	0.028				
397	0.398				
398	2.528				
399	6.521				
400	7.321				
401	7.344				
402	10.741				
403	11.766				
404	8.452				
405	7.523				
406	13.949				
407	19.551				
408	13.8				
409	6.133				
410	4.139				
411	6.766				
412	14.253				
413	16.904				
414	9.72				
415	4.083				
416	3.89				
417	8.869				
418	17.205				
419	15.996				
420	7.67				
421	3.075				
422	3.115				
423	4.288				
424	4.138				
425	2.367				
426	0.903				
427	0.435				
428	0.324				
429	0.437				
430	0.686				
431	0.939				
432	0.751				
433	0.33				
434	0.151				
435	0.08				
436	0.069				
437	0.112				
438	0.106				
439	0.212				
440	0.27				
441	0.201				
442	0.091				
443	0.049				
444	0.051				
445	0.036				
446	0.05				
447	0.078				
448	0.115				
449	0.107				
450	0.085				
451	0.025				
452	0.031				
453	0.031				
454	0.028				
455	0.02				
456	0.033				
457	0.055				
458	0.07				
459	0.041				
460	0.058				
461	0.047				
462	0.034				
463	0.022				
464	0.034				
465	0.045				
466	0.053				
467	0.072				
468	0.065				
469	0.068				
470	0.056				
471	0.04				
472	0.031				
473	0.025				
474	0.025				
475	0.023				
476	0.048				
477	0.06				
478	0.081				
479	0.093				
480	0.086				
481	0.081				
482	0.051				
483	0.037				
484	0.042				
485	0.043				
486	0.046				
487	0.066				
488	0.085				
489	0.12				
490	0.174				
491	0.216				
492	0.221				
493	0.195				
494	0.162				
495	0.127				
496	0.117				
497	0.117				
498	0.126				
499	0.173				
500	0.259				
501	0.416				
502	0.735				
503	1.123				
504	1.305				
505	1.119				
506	0.778				
507	0.547				
508	0.423				
509	0.358				
510	0.353				
511	0.359				
512	0.414				
513	0.499				
514	0.661				
515	0.919				
516	1.285				
517	1.784				
518	2.222				
519	2.388				
520	2.228				
521	1.885				
522	1.595				
523	1.355				
524	1.219				
525	1.184				
526	1.228				
527	1.365				
528	1.602				
529	1.949				
530	2.439				
531	2.907				
532	3.046				
533	2.727				
534	2.098				
535	1.494				
536	1.076				
537	0.8				
538	0.62				
539	0.498				
540	0.433				
541	0.392				
542	0.357				
543	0.341				
544	0.345				
545	0.346				
546	0.361				
547	0.376				
548	0.402				
549	0.433				
550	0.476				
551	0.523				
552	0.575				
553	0.633				
554	0.701				
555	0.777				
556	0.879				
557	0.982				
558	1.115				
559	1.299				
560	1.541				
561	1.856				
562	2.267				
563	2.848				
564	3.686				
565	4.872				
566	6.571				
567	8.88				
568	12.374				
569	17.249				
570	23.476				
571	31.124				
572	39.77				
573	49.182				
574	59.026				
575	70.242				
576	80.554				
577	88.226				
578	92.744				
579	94.764				
580	95.446				
581	95.746				
582	95.756				
583	95.796				
584	96.121				
585	96.19				
586	96.471				
587	96.503				
588	96.573				
589	96.61				
590	96.486				
591	96.721				
592	96.824				
593	97.093				
594	96.901				
595	96.718				
596	96.835				
597	96.615				
598	96.471				
599	96.489				
600	96.569				
601	96.544				
602	96.927				
603	97.281				
604	97.372				
605	97.568				
606	97.765				
607	97.783				
608	97.901				
609	97.821				
610	97.508				
611	97.856				
612	97.666				
613	97.494				
614	97.551				
615	97.549				
616	97.511				
617	97.703				
618	97.947				
619	97.888				
620	97.83				
621	97.806				
622	97.951				
623	97.968				
624	97.825				
625	98.012				
626	97.535				
627	97.936				
628	97.777				
629	97.755				
630	98.085				
631	97.995				
632	97.738				
633	97.824				
634	97.707				
635	97.743				
636	97.707				
637	97.665				
638	97.487				
639	97.512				
640	97.521				
641	97.506				
642	97.715				
643	97.697				
644	97.863				
645	98.084				
646	98.249				
647	98.307				
648	98.344				
649	98.417				
650	98.385				
651	98.216				
652	98.059				
653	98.121				
654	98.071				
655	97.825				
656	97.823				
657	97.74				
658	97.791				
659	97.88				
660	98.006				
661	98.029				
662	98.175				
663	98.223				
664	98.223				
665	98.138				
666	98.162				
667	98.054				
668	98.004				
669	98.005				
670	97.974				
671	97.906				
672	97.807				
673	97.794				
674	97.829				
675	98.146				
676	98.104				
677	98.062				
678	98.526				
679	98.438				
680	98.385				
681	98.237				
682	98.11				
683	98.341				
684	98.407				
685	98.307				
686	98.274				
687	98.194				
688	98.103				
689	98.144				
690	98.121				
691	98.174				
692	98.278				
693	98.2				
694	98.336				
695	98.225				
696	98.29				
697	98.376				
698	98.371				
699	98.476				
700	98.374				
701	98.364				
702	98.469				
703	98.167				
704	98.16				
705	98.256				
706	98.076				
707	97.91				
708	98.085				
709	97.999				
710	98.199				
711	98.223				
712	98.361				
713	98.283				
714	98.312				
715	98.339				
716	98.304				
717	98.366				
718	98.424				
719	98.357				
720	98.391				
721	98.452				
722	98.454				
723	98.367				
724	98.37				
725	98.334				
726	98.344				
727	98.36				
728	98.423				
729	98.43				
730	98.356				
731	98.418				
732	98.266				
733	98.324				
734	98.239				
735	98.392				
736	98.353				
737	98.375				
738	98.294				
739	98.207				
740	98.018				
741	97.901				
742	97.777				
743	97.733				
744	97.74				
745	97.861				
746	97.832				
747	97.786				
748	97.822				
749	97.805				
750	97.858				
751	97.927				
752	98.0				
753	98.107				
754	97.999				
755	98.096				
756	98.138				
757	98.097				
758	98.128				
759	98.333				
760	98.073				
761	97.94				
762	97.892				
763	97.911				
764	97.897				
765	97.775				
766	97.808				
767	98.055				
768	97.757				
769	97.79				
770	97.724				
771	97.913				
772	98.034				
773	98.044				
774	98.159				
775	98.193				
776	98.215				
777	98.257				
778	98.36				
779	98.393				
780	98.343				
781	98.291				
782	98.072				
783	98.016				
784	97.909				
785	97.851				
786	97.869				
787	97.652				
788	97.488				
789	97.257				
790	97.229				
791	97.29				
792	97.344				
793	97.138				
794	97.33				
795	97.503				
796	97.55				
797	97.666				
798	97.512				
799	97.636				
800	97.609				
801	97.725				
802	97.837				
803	97.788				
804	97.758				
805	97.59				
806	97.338				
807	97.269				
808	97.045				
809	96.998				
810	96.902				
811	96.641				
812	96.391				
813	96.263				
814	96.172				
815	96.053				
816	95.852				
817	95.894				
818	95.873				
819	95.876				
820	95.889				
821	96.157				
822	96.381				
823	96.478				
824	96.521				
825	96.488				
826	96.577				
827	96.569				
828	96.422				
829	96.321				
830	96.143				
831	95.959				
832	95.765				
833	95.589				
834	95.498				
835	95.252				
836	94.892				
837	94.738				
838	94.52				
839	94.238				
840	93.955				
841	94.005				
842	93.667				
843	93.561				
844	93.543				
845	93.616				
846	93.593				
847	93.489				
848	93.647				
849	93.327				
850	93.223				
851	92.802				
852	92.29				
853	91.726				
854	91.074				
855	90.024				
856	89.155				
857	88.228				
858	87.055				
859	85.997				
860	84.437				
861	82.933				
862	81.45				
863	79.996				
864	78.938				
865	77.758				
866	76.421				
867	75.365				
868	74.412				
869	73.233				
870	72.338				
871	71.17				
872	70.573				
873	69.971				
874	69.264				
875	68.674				
876	68.257				
877	67.541				
878	67.389				
879	67.422				
880	67.305				
881	67.61				
882	67.697				
883	68.27				
884	68.458				
885	69.018				
886	69.738				
887	70.188				
888	70.531				
889	70.561				
890	70.217				
891	68.978				
892	67.5				
893	65.123				
894	62.617				
895	59.695				
896	56.685				
897	53.384				
898	50.331				
899	47.933				
900	45.748				
901	43.805				
902	42.512				
903	41.417				
904	40.565				
905	40.33				
906	40.326				
907	40.675				
908	41.355				
909	42.405				
910	43.754				
911	45.135				
912	47.123				
913	49.578				
914	52.551				
915	56.243				
916	61.509				
917	67.692				
918	72.305				
919	72.453				
920	66.061				
921	55.738				
922	45.63				
923	38.202				
924	33.275				
925	29.5				
926	26.406				
927	23.829				
928	21.628				
929	19.792				
930	18.214				
931	16.947				
932	15.791				
933	14.853				
934	14.084				
935	13.474				
936	12.98				
937	12.603				
938	12.4				
939	12.325				
940	12.364				
941	12.55				
942	12.88				
943	13.39				
944	14.187				
945	15.295				
946	16.791				
947	18.773				
948	21.518				
949	25.135				
950	29.807				
951	35.258				
952	40.409				
953	42.96				
954	40.882				
955	34.589				
956	26.475				
957	18.892				
958	13.004				
959	9.177				
960	6.583				
961	4.857				
962	3.669				
963	2.756				
964	2.144				
965	1.698				
966	1.344				
967	1.091				
968	0.895				
969	0.74				
970	0.613				
971	0.518				
972	0.446				
973	0.377				
974	0.324				
975	0.284				
976	0.252				
977	0.22				
978	0.189				
979	0.17				
980	0.15				
981	0.135				
982	0.12				
983	0.108				
984	0.099				
985	0.092				
986	0.079				
987	0.075				
988	0.062				
989	0.055				
990	0.057				
991	0.045				
992	0.053				
993	0.043				
994	0.046				
995	0.045				
996	0.037				
997	0.033				
998	0.032				
999	0.028				
1000	0.03				
