Wavelength	Transmittance	hex_color	Manufacturer	Name	Filter Number
350	42.466		Chroma		210150
351	46.507				
352	50.549				
353	55.882				
354	61.173				
355	66.492				
356	71.155				
357	75.208				
358	78.925				
359	81.761				
360	84.218				
361	86.208				
362	87.917				
363	89.247				
364	90.447				
365	91.668				
366	92.338				
367	92.983				
368	93.74				
369	94.195				
370	94.625				
371	95.073				
372	95.274				
373	95.687				
374	95.845				
375	95.722				
376	96.155				
377	96.43				
378	96.258				
379	96.587				
380	96.448				
381	96.541				
382	96.498				
383	96.476				
384	96.704				
385	96.758				
386	96.682				
387	96.651				
388	96.668				
389	96.722				
390	96.766				
391	96.739				
392	96.836				
393	96.704				
394	96.814				
395	96.963				
396	96.63				
397	96.846				
398	96.747				
399	96.855				
400	96.824				
401	96.833				
402	96.818				
403	96.672				
404	96.826				
405	96.794				
406	96.728				
407	96.814				
408	96.766				
409	96.699				
410	96.782				
411	96.85				
412	96.767				
413	96.811				
414	96.708				
415	96.79				
416	96.843				
417	96.852				
418	96.742				
419	96.683				
420	96.8				
421	96.804				
422	96.752				
423	96.788				
424	96.834				
425	96.675				
426	96.785				
427	96.754				
428	96.715				
429	96.663				
430	96.728				
431	96.77				
432	96.641				
433	96.614				
434	96.842				
435	96.831				
436	96.835				
437	96.819				
438	96.709				
439	96.803				
440	96.801				
441	96.845				
442	96.864				
443	96.805				
444	96.862				
445	96.895				
446	96.924				
447	97.103				
448	97.032				
449	97.157				
450	97.208				
451	97.206				
452	97.444				
453	97.469				
454	97.523				
455	97.642				
456	97.677				
457	97.844				
458	97.988				
459	97.939				
460	98.03				
461	98.165				
462	98.338				
463	98.383				
464	98.352				
465	98.439				
466	98.514				
467	98.708				
468	98.733				
469	98.715				
470	98.762				
471	98.879				
472	98.886				
473	98.976				
474	98.989				
475	99.046				
476	99.093				
477	99.158				
478	99.207				
479	99.186				
480	99.304				
481	99.24				
482	99.405				
483	99.278				
484	99.353				
485	99.361				
486	99.344				
487	99.396				
488	99.416				
489	99.347				
490	99.404				
491	99.482				
492	99.385				
493	99.322				
494	99.363				
495	99.491				
496	99.439				
497	99.466				
498	99.358				
499	99.5				
500	99.356				
501	99.445				
502	99.401				
503	99.484				
504	99.332				
505	99.319				
506	99.35				
507	99.339				
508	99.434				
509	99.349				
510	99.261				
511	99.317				
512	99.408				
513	99.314				
514	99.122				
515	99.213				
516	99.192				
517	99.217				
518	99.186				
519	99.037				
520	99.195				
521	98.934				
522	99.053				
523	99.052				
524	99.094				
525	99.048				
526	99.075				
527	98.937				
528	98.857				
529	98.837				
530	98.854				
531	98.922				
532	98.91				
533	98.688				
534	98.728				
535	98.637				
536	98.76				
537	98.761				
538	98.621				
539	98.632				
540	98.585				
541	98.592				
542	98.578				
543	98.471				
544	98.402				
545	98.519				
546	98.38				
547	98.482				
548	98.337				
549	98.354				
550	98.287				
551	98.289				
552	98.249				
553	98.331				
554	98.223				
555	98.203				
556	98.094				
557	98.118				
558	97.909				
559	98.136				
560	97.932				
561	97.847				
562	97.846				
563	97.764				
564	97.918				
565	97.739				
566	97.703				
567	97.692				
568	97.753				
569	97.625				
570	97.563				
571	97.482				
572	97.444				
573	97.619				
574	97.431				
575	97.515				
576	97.409				
577	97.467				
578	97.247				
579	97.29				
580	97.383				
581	97.328				
582	97.227				
583	97.215				
584	97.177				
585	97.274				
586	97.142				
587	97.135				
588	97.013				
589	97.071				
590	97.065				
591	96.952				
592	97.022				
593	97.018				
594	97.007				
595	96.936				
596	97.002				
597	97.028				
598	97.032				
599	97.066				
600	96.978				
601	97.026				
602	96.959				
603	97.002				
604	96.942				
605	96.989				
606	97.04				
607	97.046				
608	97.033				
609	97.074				
610	97.064				
611	97.141				
612	97.209				
613	97.155				
614	97.196				
615	97.165				
616	97.244				
617	97.2				
618	97.279				
619	97.301				
620	97.291				
621	97.27				
622	97.294				
623	97.29				
624	97.328				
625	97.456				
626	97.424				
627	97.395				
628	97.628				
629	97.555				
630	97.578				
631	97.608				
632	97.586				
633	97.588				
634	97.671				
635	97.694				
636	97.659				
637	97.827				
638	97.869				
639	97.76				
640	97.737				
641	97.941				
642	97.913				
643	97.888				
644	97.943				
645	98.033				
646	98.032				
647	98.133				
648	98.048				
649	98.069				
650	98.156				
651	98.145				
652	98.177				
653	98.244				
654	98.16				
655	98.338				
656	98.322				
657	98.305				
658	98.258				
659	98.281				
660	98.295				
661	98.299				
662	98.469				
663	98.371				
664	98.394				
665	98.364				
666	98.536				
667	98.393				
668	98.416				
669	98.522				
670	98.609				
671	98.57				
672	98.678				
673	98.576				
674	98.675				
675	98.59				
676	98.711				
677	98.689				
678	98.669				
679	98.647				
680	98.666				
681	98.668				
682	98.62				
683	98.645				
684	98.773				
685	98.574				
686	98.796				
687	98.598				
688	98.57				
689	98.7				
690	98.758				
691	98.77				
692	98.75				
693	98.934				
694	98.923				
695	98.903				
696	98.806				
697	98.93				
698	98.848				
699	98.797				
700	98.713				
701	98.808				
702	98.927				
703	98.629				
704	98.779				
705	98.743				
706	98.794				
707	98.499				
708	98.819				
709	98.615				
710	98.823				
711	98.75				
712	98.827				
713	98.737				
714	98.743				
715	98.766				
716	98.526				
717	98.553				
718	98.599				
719	98.615				
720	98.571				
721	98.676				
722	98.856				
723	98.729				
724	98.663				
725	98.708				
726	98.751				
727	98.729				
728	98.501				
729	98.612				
730	98.536				
731	98.324				
732	98.407				
733	98.314				
734	98.507				
735	98.435				
736	98.361				
737	98.584				
738	98.374				
739	98.11				
740	98.213				
741	98.278				
742	98.255				
743	98.19				
744	98.08				
745	98.249				
746	98.225				
747	97.992				
748	98.174				
749	98.112				
750	98.05				
751	97.935				
752	98.077				
753	97.857				
754	97.942				
755	98.021				
756	97.941				
757	97.943				
758	97.892				
759	98.063				
760	97.957				
761	97.91				
762	97.796				
763	98.061				
764	97.791				
765	97.951				
766	97.909				
767	97.704				
768	97.861				
769	97.844				
770	97.799				
771	97.826				
772	97.936				
773	97.918				
774	97.511				
775	97.838				
776	97.567				
777	97.465				
778	97.642				
779	97.468				
780	97.753				
781	97.773				
782	97.471				
783	97.48				
784	97.382				
785	97.769				
786	97.609				
787	97.378				
788	97.718				
789	97.715				
790	97.668				
791	97.741				
792	96.864				
793	97.438				
794	97.54				
795	97.452				
796	97.065				
797	97.23				
798	97.501				
799	97.166				
800	96.886				
801	97.084				
802	97.283				
803	97.543				
804	97.416				
805	97.455				
806	97.414				
807	97.338				
808	97.244				
809	97.331				
810	97.326				
811	97.66				
812	97.55				
813	97.554				
814	97.607				
815	97.755				
816	97.643				
817	97.717				
818	97.851				
819	98.226				
820	98.159				
821	98.371				
822	98.348				
823	98.309				
824	98.322				
825	98.292				
826	98.26				
827	98.34				
828	98.371				
829	98.371				
830	98.113				
831	97.982				
832	97.993				
833	97.934				
834	97.931				
835	97.96				
836	97.967				
837	98.052				
838	97.997				
839	98.076				
840	98.021				
841	98.052				
842	98.043				
843	98.014				
844	97.986				
845	97.971				
846	98.061				
847	97.963				
848	98.011				
849	97.987				
850	97.986				
851	97.953				
852	97.961				
853	98.024				
854	98.226				
855	98.088				
856	98.143				
857	98.363				
858	98.478				
859	98.432				
860	98.525				
861	98.481				
862	98.531				
863	98.18				
864	98.199				
865	98.189				
866	98.19				
867	98.175				
868	98.213				
869	98.169				
870	98.15				
871	98.163				
872	98.128				
873	98.194				
874	98.207				
875	98.141				
876	98.104				
877	98.134				
878	98.055				
879	98.07				
880	98.078				
881	98.038				
882	98.018				
883	98.092				
884	98.084				
885	98.054				
886	98.135				
887	98.124				
888	98.089				
889	98.057				
890	98.069				
891	98.077				
892	98.055				
893	98.026				
894	98.028				
895	97.976				
896	97.969				
897	97.999				
898	97.97				
899	97.886				
900	97.915				
901	97.84				
902	97.929				
903	97.911				
904	97.941				
905	97.858				
906	97.949				
907	97.939				
908	97.911				
909	97.878				
910	97.857				
911	97.81				
912	97.831				
913	97.781				
914	97.766				
915	97.742				
916	97.788				
917	97.749				
918	97.737				
919	97.71				
920	97.705				
921	97.708				
922	97.693				
923	97.711				
924	97.637				
925	97.666				
926	97.638				
927	97.641				
928	97.617				
929	97.619				
930	97.604				
931	97.613				
932	97.533				
933	97.536				
934	97.55				
935	97.533				
936	97.531				
937	97.479				
938	97.466				
939	97.461				
940	97.472				
941	97.467				
942	97.438				
943	97.426				
944	97.452				
945	97.391				
946	97.416				
947	97.417				
948	97.389				
949	97.368				
950	97.391				
951	97.318				
952	97.288				
953	97.257				
954	97.204				
955	97.211				
956	97.08				
957	97.1				
958	97.043				
959	97.025				
960	96.977				
961	96.946				
962	96.934				
963	96.873				
964	96.851				
965	96.858				
966	96.803				
967	96.771				
968	96.73				
969	96.716				
970	96.699				
971	96.666				
972	96.649				
973	96.629				
974	96.651				
975	96.59				
976	96.601				
977	96.583				
978	96.539				
979	96.556				
980	96.54				
981	96.539				
982	96.516				
983	96.503				
984	96.505				
985	96.529				
986	96.506				
987	96.524				
988	96.521				
989	96.539				
990	96.547				
991	96.503				
992	96.535				
993	96.559				
994	96.568				
995	96.563				
996	96.575				
997	96.603				
998	96.61				
999	96.656				
1000	96.614				
1001	96.664				
1002	96.666				
1003	96.659				
1004	96.654				
1005	96.672				
1006	96.703				
1007	96.723				
1008	96.708				
1009	96.733				
1010	96.754				
1011	96.758				
1012	96.779				
1013	96.78				
1014	96.812				
1015	96.824				
1016	96.885				
1017	96.895				
1018	96.909				
1019	96.943				
1020	97.015				
1021	97.016				
1022	96.997				
1023	97.094				
1024	97.096				
1025	97.106				
1026	97.12				
1027	97.163				
1028	97.226				
1029	97.237				
1030	97.264				
1031	97.311				
1032	97.348				
1033	97.382				
1034	97.441				
1035	97.429				
1036	97.488				
1037	97.557				
1038	97.577				
1039	97.59				
1040	97.639				
1041	97.677				
1042	97.748				
1043	97.77				
1044	97.83				
1045	97.845				
1046	97.87				
1047	97.963				
1048	98.04				
1049	98.01				
1050	98.044				
1051	98.109				
1052	98.154				
1053	98.21				
1054	98.289				
1055	98.258				
1056	98.326				
1057	98.363				
1058	98.404				
1059	98.445				
1060	98.507				
1061	98.522				
1062	98.556				
1063	98.656				
1064	98.644				
1065	98.666				
1066	98.709				
1067	98.771				
1068	98.837				
1069	98.847				
1070	98.936				
1071	98.926				
1072	98.985				
1073	98.997				
1074	99.055				
1075	99.041				
1076	99.116				
1077	99.148				
1078	99.191				
1079	99.234				
1080	99.243				
1081	99.274				
1082	99.309				
1083	99.35				
1084	99.414				
1085	99.431				
1086	99.423				
1087	99.521				
1088	99.559				
1089	99.552				
1090	99.607				
1091	99.671				
1092	99.69				
1093	99.697				
1094	99.724				
1095	99.751				
1096	99.773				
1097	99.809				
1098	99.864				
1099	99.827				
1100	100.0				
