Wavelength	Transmittance	hex_color	Manufacturer	Name	Filter Number
300	0.0		Chroma		AT435lp
301	0.0				
302	0.0				
303	0.0				
304	0.0				
305	0.0				
306	0.0				
307	0.0				
308	0.0				
309	0.0				
310	0.0				
311	0.0				
312	0.0				
313	0.0				
314	0.0				
315	0.0				
316	0.0				
317	0.0				
318	0.0				
319	0.0				
320	0.0				
321	0.0				
322	0.0				
323	0.0				
324	0.0				
325	0.0				
326	0.0				
327	0.0				
328	0.0				
329	0.0				
330	0.0				
331	0.0				
332	0.0				
333	0.0				
334	0.0				
335	0.0				
336	0.0				
337	0.0				
338	0.0				
339	0.0				
340	0.0				
341	0.0				
342	0.0				
343	0.0				
344	0.0				
345	0.0				
346	0.0				
347	0.0				
348	0.0				
349	0.0				
350	0.0				
351	0.0				
352	0.0				
353	0.0				
354	0.0				
355	0.0				
356	0.0				
357	0.0				
358	0.0				
359	0.0				
360	0.0				
361	0.0				
362	0.0				
363	0.0				
364	0.0				
365	0.0				
366	0.0				
367	0.0				
368	0.0				
369	0.0				
370	0.0				
371	0.0				
372	0.0				
373	0.0				
374	0.0				
375	0.0				
376	0.0				
377	0.0				
378	0.0				
379	0.0				
380	0.0				
381	0.0				
382	0.0				
383	0.0				
384	0.0				
385	0.0				
386	0.0				
387	0.0				
388	0.0				
389	0.0				
390	0.0				
391	0.0				
392	0.0				
393	0.0				
394	0.0				
395	0.0				
396	0.0				
397	0.0				
398	0.0				
399	0.0				
400	0.0				
401	0.0				
402	0.0				
403	0.0				
404	0.0				
405	0.0				
406	0.0				
407	0.0				
408	0.0				
409	0.0				
410	0.0				
411	0.0				
412	0.0				
413	0.0				
414	0.0				
415	0.0				
416	0.0				
417	0.0				
418	0.0				
419	0.0				
420	0.0				
421	0.0				
422	0.0				
423	0.0				
424	0.0				
425	0.0				
426	0.001				
427	0.003				
428	0.01				
429	0.033				
430	0.13				
431	0.583				
432	3.298				
433	19.498				
434	64.729				
435	92.423				
436	94.394				
437	94.915				
438	94.86				
439	94.51				
440	94.525				
441	94.88				
442	95.122				
443	95.144				
444	95.051				
445	95.024				
446	95.152				
447	95.297				
448	95.432				
449	95.359				
450	95.256				
451	95.076				
452	95.024				
453	95.111				
454	95.237				
455	95.321				
456	95.354				
457	95.315				
458	95.175				
459	95.066				
460	94.978				
461	94.936				
462	95.043				
463	95.166				
464	95.303				
465	95.418				
466	95.458				
467	95.483				
468	95.474				
469	95.472				
470	95.454				
471	95.434				
472	95.453				
473	95.519				
474	95.57				
475	95.576				
476	95.552				
477	95.531				
478	95.461				
479	95.343				
480	95.31				
481	95.277				
482	95.312				
483	95.395				
484	95.46				
485	95.543				
486	95.559				
487	95.499				
488	95.314				
489	95.04				
490	94.683				
491	94.27				
492	93.83				
493	93.477				
494	93.2				
495	93.032				
496	93.0				
497	93.117				
498	93.33				
499	93.661				
500	93.972				
501	94.354				
502	94.642				
503	94.921				
504	95.085				
505	95.222				
506	95.253				
507	95.207				
508	95.153				
509	95.115				
510	95.105				
511	95.088				
512	95.166				
513	95.249				
514	95.335				
515	95.463				
516	95.586				
517	95.662				
518	95.658				
519	95.66				
520	95.56				
521	95.398				
522	95.27				
523	95.082				
524	94.88				
525	94.765				
526	94.651				
527	94.616				
528	94.633				
529	94.749				
530	94.918				
531	95.064				
532	95.276				
533	95.38				
534	95.548				
535	95.664				
536	95.637				
537	95.543				
538	95.38				
539	95.176				
540	94.921				
541	94.632				
542	94.35				
543	94.059				
544	93.874				
545	93.666				
546	93.556				
547	93.551				
548	93.592				
549	93.76				
550	93.865				
551	94.084				
552	94.373				
553	94.591				
554	94.85				
555	95.025				
556	95.18				
557	95.289				
558	95.324				
559	95.303				
560	95.217				
561	95.11				
562	94.999				
563	94.837				
564	94.66				
565	94.55				
566	94.456				
567	94.364				
568	94.312				
569	94.326				
570	94.374				
571	94.438				
572	94.545				
573	94.642				
574	94.751				
575	94.817				
576	94.952				
577	94.965				
578	94.996				
579	94.973				
580	94.888				
581	94.833				
582	94.713				
583	94.616				
584	94.445				
585	94.318				
586	94.157				
587	94.0				
588	93.934				
589	93.825				
590	93.792				
591	93.764				
592	93.744				
593	93.79				
594	93.838				
595	93.897				
596	94.005				
597	94.092				
598	94.141				
599	94.213				
600	94.275				
601	94.303				
602	94.307				
603	94.316				
604	94.274				
605	94.26				
606	94.162				
607	94.087				
608	93.998				
609	93.925				
610	93.863				
611	93.813				
612	93.744				
613	93.72				
614	93.726				
615	93.718				
616	93.765				
617	93.833				
618	93.938				
619	94.039				
620	94.174				
621	94.262				
622	94.389				
623	94.489				
624	94.585				
625	94.64				
626	94.689				
627	94.716				
628	94.724				
629	94.679				
630	94.603				
631	94.501				
632	94.41				
633	94.264				
634	94.139				
635	94.023				
636	93.867				
637	93.754				
638	93.599				
639	93.502				
640	93.398				
641	93.351				
642	93.285				
643	93.261				
644	93.284				
645	93.313				
646	93.38				
647	93.424				
648	93.516				
649	93.629				
650	93.718				
651	93.783				
652	93.858				
653	93.938				
654	93.99				
655	94.013				
656	94.009				
657	94.021				
658	93.97				
659	93.907				
660	93.821				
661	93.715				
662	93.618				
663	93.489				
664	93.317				
665	93.169				
666	93.031				
667	92.907				
668	92.776				
669	92.673				
670	92.544				
671	92.487				
672	92.45				
673	92.408				
674	92.381				
675	92.388				
676	92.453				
677	92.482				
678	92.556				
679	92.648				
680	92.784				
681	92.864				
682	92.972				
683	93.071				
684	93.193				
685	93.282				
686	93.357				
687	93.439				
688	93.492				
689	93.516				
690	93.502				
691	93.468				
692	93.432				
693	93.377				
694	93.284				
695	93.173				
696	93.059				
697	92.932				
698	92.799				
699	92.663				
700	92.504				
701	92.375				
702	92.238				
703	92.128				
704	91.966				
705	91.895				
706	91.802				
707	91.762				
708	91.721				
709	91.677				
710	91.659				
711	91.668				
712	91.712				
713	91.767				
714	91.786				
715	91.833				
716	91.942				
717	92.061				
718	92.141				
719	92.166				
720	92.255				
721	92.315				
722	92.401				
723	92.433				
724	92.456				
725	92.495				
726	92.531				
727	92.475				
728	92.414				
729	92.431				
730	92.339				
731	92.318				
732	92.233				
733	92.16				
734	92.029				
735	91.932				
736	91.829				
737	91.733				
738	91.688				
739	91.57				
740	91.478				
741	91.464				
742	91.378				
743	91.343				
744	91.342				
745	91.349				
746	91.366				
747	91.389				
748	91.419				
749	91.488				
750	91.607				
751	91.748				
752	91.811				
753	91.959				
754	92.096				
755	92.205				
756	92.343				
757	92.459				
758	92.577				
759	92.702				
760	92.872				
761	92.93				
762	93.038				
763	93.108				
764	93.206				
765	93.196				
766	93.243				
767	93.279				
768	93.216				
769	93.174				
770	93.194				
771	93.048				
772	92.955				
773	92.795				
774	92.676				
775	92.546				
776	92.381				
777	92.181				
778	91.978				
779	91.876				
780	91.653				
781	91.552				
782	91.431				
783	91.259				
784	91.041				
785	90.987				
786	90.877				
787	90.844				
788	90.707				
789	90.679				
790	90.645				
791	90.697				
792	90.681				
793	90.755				
794	90.784				
795	90.901				
796	91.022				
797	91.107				
798	91.317				
799	91.457				
800	91.524				
801	91.692				
802	91.876				
803	92.059				
804	92.254				
805	92.438				
806	92.62				
807	92.792				
808	92.966				
809	93.125				
810	93.262				
811	93.388				
812	93.506				
813	93.596				
814	93.657				
815	93.702				
816	93.738				
817	93.742				
818	93.716				
819	93.672				
820	93.619				
821	93.527				
822	93.432				
823	93.316				
824	93.182				
825	93.035				
826	92.885				
827	92.714				
828	92.55				
829	92.363				
830	92.195				
831	92.016				
832	91.849				
833	91.68				
834	91.52				
835	91.379				
836	91.246				
837	91.108				
838	91.009				
839	90.922				
840	90.838				
841	90.779				
842	90.738				
843	90.722				
844	90.727				
845	90.738				
846	90.765				
847	90.823				
848	90.89				
849	90.985				
850	91.087				
851	91.198				
852	91.335				
853	91.469				
854	91.614				
855	91.771				
856	91.929				
857	92.096				
858	92.266				
859	92.421				
860	92.582				
861	92.734				
862	92.882				
863	93.028				
864	93.152				
865	93.268				
866	93.37				
867	93.461				
868	93.526				
869	93.583				
870	93.617				
871	93.631				
872	93.633				
873	93.607				
874	93.576				
875	93.516				
876	93.443				
877	93.354				
878	93.247				
879	93.119				
880	92.999				
881	92.859				
882	92.691				
883	92.53				
884	92.354				
885	92.193				
886	92.008				
887	91.826				
888	91.652				
889	91.465				
890	91.297				
891	91.138				
892	90.974				
893	90.822				
894	90.687				
895	90.558				
896	90.439				
897	90.342				
898	90.26				
899	90.178				
900	90.13				
901	90.085				
902	90.056				
903	90.045				
904	90.057				
905	90.082				
906	90.122				
907	90.173				
908	90.238				
909	90.325				
910	90.414				
911	90.528				
912	90.651				
913	90.771				
914	90.917				
915	91.055				
916	91.206				
917	91.357				
918	91.522				
919	91.687				
920	91.842				
921	92.014				
922	92.168				
923	92.323				
924	92.478				
925	92.61				
926	92.744				
927	92.861				
928	92.973				
929	93.08				
930	93.165				
931	93.24				
932	93.291				
933	93.346				
934	93.365				
935	93.377				
936	93.371				
937	93.339				
938	93.311				
939	93.264				
940	93.17				
941	93.094				
942	92.993				
943	92.895				
944	92.752				
945	92.61				
946	92.479				
947	92.326				
948	92.132				
949	91.981				
950	91.812				
951	91.605				
952	91.417				
953	91.267				
954	91.066				
955	90.869				
956	90.724				
957	90.526				
958	90.36				
959	90.207				
960	90.021				
961	89.902				
962	89.741				
963	89.608				
964	89.507				
965	89.376				
966	89.301				
967	89.202				
968	89.144				
969	89.077				
970	89.035				
971	89.017				
972	88.991				
973	89.0				
974	89.0				
975	89.058				
976	89.061				
977	89.136				
978	89.183				
979	89.288				
980	89.357				
981	89.468				
982	89.562				
983	89.696				
984	89.832				
985	89.962				
986	90.104				
987	90.264				
988	90.421				
989	90.586				
990	90.745				
991	90.909				
992	91.088				
993	91.264				
994	91.425				
995	91.593				
996	91.753				
997	91.916				
998	92.079				
999	92.221				
1000	92.358				
1001	92.495				
1002	92.629				
1003	92.734				
1004	92.836				
1005	92.931				
1006	93.019				
1007	93.086				
1008	93.143				
1009	93.192				
1010	93.228				
1011	93.242				
1012	93.249				
1013	93.233				
1014	93.214				
1015	93.17				
1016	93.127				
1017	93.065				
1018	92.998				
1019	92.896				
1020	92.807				
1021	92.701				
1022	92.582				
1023	92.458				
1024	92.338				
1025	92.189				
1026	92.043				
1027	91.901				
1028	91.727				
1029	91.567				
1030	91.41				
1031	91.237				
1032	91.084				
1033	90.903				
1034	90.74				
1035	90.56				
1036	90.4				
1037	90.259				
1038	90.095				
1039	89.952				
1040	89.807				
1041	89.666				
1042	89.553				
1043	89.412				
1044	89.29				
1045	89.183				
1046	89.078				
1047	88.992				
1048	88.902				
1049	88.836				
1050	88.762				
1051	88.706				
1052	88.648				
1053	88.619				
1054	88.58				
1055	88.588				
1056	88.581				
1057	88.577				
1058	88.601				
1059	88.637				
1060	88.664				
1061	88.73				
1062	88.778				
1063	88.852				
1064	88.922				
1065	89.017				
1066	89.087				
1067	89.194				
1068	89.3				
1069	89.392				
1070	89.51				
1071	89.603				
1072	89.702				
1073	89.833				
1074	89.979				
1075	90.125				
1076	90.262				
1077	90.417				
1078	90.555				
1079	90.656				
1080	90.775				
1081	90.92				
1082	91.066				
1083	91.198				
1084	91.342				
1085	91.458				
1086	91.553				
1087	91.632				
1088	91.774				
1089	91.899				
1090	92.007				
1091	92.068				
1092	92.129				
1093	92.215				
1094	92.3				
1095	92.368				
1096	92.42				
1097	92.431				
1098	92.503				
1099	92.532				
1100	92.523				
