Wavelength	Transmittance	hex_color	Manufacturer	Name	Filter Number
350	0.137		Chroma		AT565DC
351	0.074				
352	0.056				
353	0.07				
354	0.056				
355	0.067				
356	0.083				
357	0.146				
358	0.373				
359	1.144				
360	3.62				
361	8.416				
362	13.959				
363	19.263				
364	25.115				
365	31.744				
366	39.595				
367	45.873				
368	47.373				
369	44.698				
370	44.004				
371	47.092				
372	51.45				
373	54.162				
374	54.448				
375	58.786				
376	66.844				
377	73.472				
378	75.325				
379	73.868				
380	74.827				
381	77.602				
382	79.306				
383	79.76				
384	82.469				
385	85.95				
386	80.967				
387	65.769				
388	51.341				
389	48.579				
390	55.449				
391	70.575				
392	82.991				
393	78.906				
394	65.172				
395	55.136				
396	54.224				
397	58.763				
398	65.985				
399	73.57				
400	79.572				
401	78.7				
402	67.718				
403	56.211				
404	52.041				
405	51.274				
406	53.178				
407	53.321				
408	47.406				
409	43.237				
410	44.849				
411	47.158				
412	46.091				
413	42.849				
414	38.544				
415	32.939				
416	24.306				
417	15.242				
418	8.583				
419	4.951				
420	3.341				
421	2.613				
422	2.574				
423	3.589				
424	6.102				
425	12.261				
426	18.807				
427	16.607				
428	7.385				
429	2.781				
430	1.482				
431	1.133				
432	1.122				
433	1.547				
434	2.692				
435	4.009				
436	3.973				
437	2.324				
438	1.035				
439	0.506				
440	0.316				
441	0.26				
442	0.243				
443	0.292				
444	0.437				
445	0.785				
446	1.242				
447	1.273				
448	0.846				
449	0.417				
450	0.217				
451	0.14				
452	0.117				
453	0.1				
454	0.111				
455	0.128				
456	0.212				
457	0.394				
458	0.602				
459	0.673				
460	0.488				
461	0.265				
462	0.143				
463	0.099				
464	0.076				
465	0.06				
466	0.066				
467	0.075				
468	0.114				
469	0.176				
470	0.288				
471	0.469				
472	0.569				
473	0.483				
474	0.306				
475	0.173				
476	0.116				
477	0.094				
478	0.074				
479	0.08				
480	0.073				
481	0.103				
482	0.143				
483	0.23				
484	0.376				
485	0.59				
486	0.698				
487	0.583				
488	0.355				
489	0.193				
490	0.143				
491	0.109				
492	0.09				
493	0.096				
494	0.107				
495	0.153				
496	0.224				
497	0.341				
498	0.574				
499	1.032				
500	1.21				
501	0.882				
502	0.488				
503	0.255				
504	0.177				
505	0.13				
506	0.139				
507	0.156				
508	0.168				
509	0.173				
510	0.248				
511	0.521				
512	1.392				
513	2.146				
514	1.694				
515	0.663				
516	0.215				
517	0.101				
518	0.058				
519	0.047				
520	0.032				
521	0.022				
522	0.018				
523	0.017				
524	0.02				
525	0.015				
526	0.013				
527	0.016				
528	0.014				
529	0.012				
530	0.02				
531	0.016				
532	0.018				
533	0.02				
534	0.027				
535	0.031				
536	0.031				
537	0.035				
538	0.053				
539	0.069				
540	0.086				
541	0.115				
542	0.149				
543	0.207				
544	0.286				
545	0.385				
546	0.509				
547	0.649				
548	0.811				
549	0.987				
550	1.156				
551	1.349				
552	1.577				
553	1.829				
554	2.194				
555	2.618				
556	3.262				
557	4.198				
558	5.373				
559	6.943				
560	9.71				
561	13.583				
562	18.622				
563	25.23				
564	32.025				
565	39.162				
566	45.245				
567	50.335				
568	55.074				
569	60.794				
570	67.998				
571	75.934				
572	83.112				
573	88.657				
574	92.024				
575	93.575				
576	94.179				
577	94.261				
578	94.221				
579	94.092				
580	94.093				
581	94.048				
582	94.215				
583	94.315				
584	94.389				
585	94.376				
586	94.391				
587	94.412				
588	94.362				
589	94.324				
590	94.352				
591	94.43				
592	94.503				
593	94.472				
594	94.569				
595	94.49				
596	94.494				
597	94.448				
598	94.415				
599	94.342				
600	94.359				
601	94.624				
602	94.745				
603	94.731				
604	94.755				
605	94.827				
606	94.878				
607	94.996				
608	94.958				
609	94.981				
610	94.918				
611	94.946				
612	94.909				
613	94.838				
614	94.639				
615	94.69				
616	94.786				
617	94.835				
618	94.911				
619	94.966				
620	94.992				
621	94.988				
622	94.958				
623	94.836				
624	94.663				
625	94.513				
626	94.329				
627	94.222				
628	94.018				
629	93.892				
630	93.842				
631	93.858				
632	93.935				
633	94.036				
634	94.203				
635	94.371				
636	94.599				
637	94.771				
638	94.892				
639	95.008				
640	94.954				
641	95.075				
642	94.918				
643	94.806				
644	94.615				
645	94.275				
646	94.012				
647	93.954				
648	93.576				
649	93.338				
650	93.175				
651	93.159				
652	93.175				
653	93.387				
654	93.44				
655	93.675				
656	93.978				
657	94.218				
658	94.417				
659	94.633				
660	94.748				
661	94.86				
662	94.97				
663	94.991				
664	95.021				
665	94.918				
666	94.734				
667	94.538				
668	94.379				
669	94.203				
670	94.042				
671	93.882				
672	93.699				
673	93.603				
674	93.646				
675	93.705				
676	93.703				
677	93.788				
678	93.931				
679	94.105				
680	94.275				
681	94.406				
682	94.475				
683	94.537				
684	94.644				
685	94.71				
686	94.762				
687	94.724				
688	94.665				
689	94.585				
690	94.501				
691	94.384				
692	94.334				
693	94.328				
694	94.407				
695	94.142				
696	94.074				
697	94.043				
698	94.019				
699	94.083				
700	94.129				
701	94.281				
702	94.459				
703	94.556				
704	94.572				
705	94.637				
706	94.696				
707	94.765				
708	94.84				
709	94.858				
710	94.702				
711	94.587				
712	94.499				
713	94.417				
714	94.327				
715	94.257				
716	94.204				
717	94.171				
718	94.083				
719	93.984				
720	93.871				
721	93.803				
722	93.803				
723	93.773				
724	93.766				
725	93.834				
726	93.918				
727	94.071				
728	94.215				
729	94.224				
730	94.222				
731	94.285				
732	94.352				
733	94.37				
734	94.47				
735	94.59				
736	94.746				
737	94.81				
738	94.756				
739	94.789				
740	94.75				
741	94.675				
742	94.563				
743	94.461				
744	94.255				
745	94.172				
746	93.974				
747	93.913				
748	93.883				
749	93.757				
750	93.602				
751	93.546				
752	93.502				
753	93.459				
754	93.418				
755	93.439				
756	93.506				
757	93.522				
758	93.572				
759	93.641				
760	93.742				
761	93.814				
762	93.981				
763	94.024				
764	94.084				
765	94.147				
766	94.288				
767	94.37				
768	94.452				
769	94.504				
770	94.533				
771	94.46				
772	94.334				
773	94.243				
774	94.227				
775	94.197				
776	94.155				
777	94.101				
778	94.055				
779	93.938				
780	93.832				
781	93.776				
782	93.74				
783	93.715				
784	93.619				
785	93.579				
786	93.711				
787	93.77				
788	93.796				
789	93.799				
790	93.739				
791	93.744				
792	93.796				
793	93.833				
794	93.902				
795	94.007				
796	94.127				
797	94.307				
798	94.082				
799	94.291				
800	94.4				
801	94.406				
802	94.462				
803	94.528				
804	94.595				
805	94.596				
806	94.595				
807	94.615				
808	94.644				
809	94.642				
810	94.722				
811	94.716				
812	94.757				
813	94.728				
814	94.709				
815	94.712				
816	94.674				
817	94.658				
818	94.599				
819	94.653				
820	94.616				
821	94.595				
822	94.574				
823	94.53				
824	94.505				
825	94.518				
826	94.544				
827	94.538				
828	94.564				
829	94.542				
830	94.54				
831	94.451				
832	94.395				
833	94.42				
834	94.314				
835	94.263				
836	94.155				
837	94.14				
838	94.175				
839	94.288				
840	94.439				
841	94.419				
842	94.381				
843	94.404				
844	94.342				
845	94.263				
846	94.222				
847	94.209				
848	94.151				
849	94.119				
850	94.097				
851	94.106				
852	94.157				
853	94.161				
854	94.172				
855	94.165				
856	94.172				
857	94.149				
858	94.173				
859	94.155				
860	94.147				
861	94.132				
862	94.106				
863	94.191				
864	94.282				
865	94.263				
866	94.345				
867	94.347				
868	94.369				
869	94.383				
870	94.442				
871	94.382				
872	94.418				
873	94.76				
874	94.585				
875	94.455				
876	94.431				
877	94.38				
878	94.392				
879	94.39				
880	94.384				
881	94.414				
882	94.431				
883	94.399				
884	94.416				
885	94.384				
886	94.335				
887	94.278				
888	94.172				
889	94.021				
890	94.043				
891	94.023				
892	94.04				
893	93.989				
894	93.937				
895	93.923				
896	93.911				
897	93.985				
898	94.01				
899	94.014				
900	94.54				
901	94.235				
902	94.147				
903	94.125				
904	94.114				
905	94.164				
906	94.162				
907	94.143				
908	94.115				
909	94.044				
910	94.046				
911	93.982				
912	93.933				
913	93.985				
914	93.995				
915	93.957				
916	93.987				
917	93.955				
918	93.925				
919	93.892				
920	93.839				
921	93.857				
922	93.931				
923	93.916				
924	93.874				
925	93.845				
926	93.815				
927	93.827				
928	93.805				
929	93.745				
930	93.703				
931	93.73				
932	93.765				
933	93.805				
934	93.844				
935	93.809				
936	93.807				
937	93.802				
938	93.815				
939	93.85				
940	93.873				
941	93.828				
942	93.834				
943	93.856				
944	93.968				
945	93.96				
946	94.015				
947	94.025				
948	94.031				
949	94.077				
950	94.087				
951	94.111				
952	94.085				
953	94.078				
954	94.11				
955	94.149				
956	94.182				
957	94.2				
958	94.161				
959	94.149				
960	94.069				
961	94.019				
962	94.059				
963	94.067				
964	94.021				
965	94.014				
966	93.965				
967	93.976				
968	93.978				
969	93.906				
970	93.935				
971	94.003				
972	94.048				
973	94.084				
974	94.138				
975	94.225				
976	94.276				
977	94.272				
978	94.257				
979	94.294				
980	94.342				
981	94.391				
982	94.455				
983	94.552				
984	94.616				
985	94.665				
986	94.612				
987	94.601				
988	94.613				
989	94.627				
990	94.64				
991	94.727				
992	94.727				
993	94.783				
994	94.759				
995	94.795				
996	94.796				
997	94.771				
998	94.736				
999	94.639				
1000	94.583				
