Wavelength	Transmittance	hex_color	Manufacturer	Name	Filter Number
350	0.0		Chroma		AT440DC
351	0.001				
352	0.009				
353	0.009				
354	0.026				
355	0.032				
356	0.041				
357	0.01				
358	0.008				
359	0.001				
360	0.01				
361	0.007				
362	0.023				
363	0.045				
364	0.066				
365	0.044				
366	0.022				
367	0.016				
368	0.014				
369	0.006				
370	0.023				
371	0.02				
372	0.049				
373	0.08				
374	0.113				
375	0.092				
376	0.049				
377	0.035				
378	0.029				
379	0.017				
380	0.03				
381	0.032				
382	0.07				
383	0.184				
384	0.246				
385	0.134				
386	0.022				
387	0.083				
388	0.137				
389	0.177				
390	0.219				
391	0.205				
392	0.295				
393	0.614				
394	0.576				
395	0.215				
396	0.135				
397	0.081				
398	0.087				
399	0.077				
400	0.125				
401	0.12				
402	0.08				
403	0.064				
404	0.078				
405	0.105				
406	0.071				
407	0.141				
408	0.103				
409	0.046				
410	0.074				
411	0.093				
412	0.085				
413	0.08				
414	0.098				
415	0.088				
416	0.113				
417	0.15				
418	0.177				
419	0.254				
420	0.428				
421	0.718				
422	1.214				
423	2.011				
424	2.955				
425	3.946				
426	4.876				
427	5.785				
428	7.063				
429	8.928				
430	11.825				
431	16.453				
432	23.036				
433	30.64				
434	38.808				
435	45.304				
436	51.115				
437	61.2				
438	76.032				
439	89.172				
440	93.086				
441	94.095				
442	94.769				
443	94.963				
444	94.771				
445	94.548				
446	94.451				
447	94.418				
448	94.423				
449	94.419				
450	94.205				
451	93.914				
452	93.728				
453	93.722				
454	93.783				
455	94.015				
456	94.248				
457	94.451				
458	94.559				
459	94.489				
460	94.315				
461	94.107				
462	93.932				
463	93.86				
464	93.802				
465	93.836				
466	93.896				
467	93.964				
468	94.007				
469	94.054				
470	94.062				
471	94.095				
472	94.133				
473	94.324				
474	94.305				
475	94.425				
476	94.572				
477	94.692				
478	94.721				
479	94.74				
480	94.679				
481	94.539				
482	94.323				
483	94.199				
484	94.006				
485	93.939				
486	93.951				
487	94.022				
488	94.177				
489	94.332				
490	94.621				
491	94.745				
492	94.86				
493	95.016				
494	94.893				
495	94.852				
496	94.594				
497	94.274				
498	93.958				
499	93.738				
500	93.424				
501	93.406				
502	93.409				
503	93.516				
504	93.55				
505	93.752				
506	93.918				
507	94.131				
508	94.321				
509	94.452				
510	94.512				
511	94.521				
512	94.454				
513	94.361				
514	94.243				
515	94.026				
516	93.868				
517	93.746				
518	93.636				
519	93.584				
520	93.554				
521	93.624				
522	93.677				
523	93.854				
524	93.956				
525	94.169				
526	94.308				
527	94.507				
528	94.582				
529	94.601				
530	94.603				
531	94.562				
532	94.513				
533	94.428				
534	94.302				
535	94.231				
536	94.149				
537	94.043				
538	94.009				
539	94.034				
540	94.007				
541	94.11				
542	94.221				
543	94.316				
544	94.4				
545	94.494				
546	94.58				
547	94.638				
548	94.687				
549	94.692				
550	94.561				
551	94.541				
552	94.455				
553	94.327				
554	94.233				
555	94.197				
556	94.207				
557	94.108				
558	93.956				
559	93.92				
560	93.929				
561	93.95				
562	93.947				
563	93.998				
564	94.075				
565	94.147				
566	94.19				
567	94.213				
568	94.198				
569	94.153				
570	94.147				
571	94.032				
572	93.979				
573	93.877				
574	93.709				
575	93.549				
576	93.393				
577	93.221				
578	93.071				
579	93.011				
580	92.886				
581	92.764				
582	92.552				
583	92.618				
584	92.466				
585	92.506				
586	92.55				
587	92.658				
588	92.781				
589	92.7				
590	92.993				
591	93.029				
592	93.324				
593	93.411				
594	93.519				
595	93.768				
596	93.988				
597	94.15				
598	94.215				
599	94.307				
600	94.456				
601	94.598				
602	95.113				
603	94.982				
604	94.9				
605	94.992				
606	94.892				
607	94.887				
608	94.772				
609	94.735				
610	94.649				
611	94.6				
612	94.579				
613	94.412				
614	94.256				
615	94.174				
616	94.096				
617	94.026				
618	93.958				
619	93.98				
620	93.929				
621	93.969				
622	93.982				
623	93.954				
624	94.014				
625	94.097				
626	94.209				
627	94.292				
628	94.315				
629	94.365				
630	94.392				
631	94.414				
632	94.482				
633	94.54				
634	94.641				
635	94.672				
636	94.7				
637	94.697				
638	94.678				
639	94.746				
640	94.736				
641	94.751				
642	94.717				
643	94.676				
644	94.575				
645	94.516				
646	94.453				
647	94.409				
648	94.377				
649	94.304				
650	94.297				
651	94.25				
652	94.231				
653	94.194				
654	94.224				
655	94.246				
656	94.275				
657	94.28				
658	94.303				
659	94.384				
660	94.431				
661	94.475				
662	94.531				
663	94.542				
664	94.587				
665	94.626				
666	94.712				
667	94.741				
668	94.726				
669	94.755				
670	94.773				
671	94.784				
672	94.791				
673	94.816				
674	94.776				
675	94.814				
676	94.785				
677	94.752				
678	94.77				
679	94.712				
680	94.691				
681	94.648				
682	94.607				
683	94.55				
684	94.546				
685	94.516				
686	94.513				
687	94.534				
688	94.503				
689	94.514				
690	94.526				
691	94.578				
692	94.576				
693	94.607				
694	94.625				
695	94.681				
696	94.692				
697	94.764				
698	94.745				
699	94.825				
700	94.858				
701	94.869				
702	94.923				
703	94.921				
704	94.886				
705	94.852				
706	94.813				
707	94.809				
708	94.823				
709	94.817				
710	94.767				
711	94.769				
712	94.741				
713	94.721				
714	94.678				
715	94.659				
716	94.636				
717	94.607				
718	94.597				
719	94.607				
720	94.571				
721	94.537				
722	94.539				
723	94.522				
724	94.45				
725	94.502				
726	94.562				
727	94.525				
728	94.552				
729	94.592				
730	94.598				
731	94.609				
732	94.677				
733	94.792				
734	94.764				
735	94.747				
736	94.765				
737	94.723				
738	94.707				
739	94.703				
740	94.698				
741	94.791				
742	94.84				
743	94.844				
744	94.811				
745	94.796				
746	94.741				
747	94.773				
748	94.785				
749	94.82				
750	94.789				
751	94.828				
752	94.826				
753	94.869				
754	94.915				
755	94.922				
756	94.926				
757	94.956				
758	94.991				
759	94.952				
760	94.856				
761	94.862				
762	94.884				
763	94.796				
764	94.792				
765	94.787				
766	94.793				
767	94.839				
768	94.823				
769	94.825				
770	94.845				
771	94.866				
772	94.834				
773	94.794				
774	94.745				
775	94.731				
776	94.752				
777	94.783				
778	94.762				
779	94.734				
780	94.716				
781	94.729				
782	94.694				
783	94.669				
784	94.668				
785	94.669				
786	94.676				
787	94.636				
788	94.685				
789	94.644				
790	94.652				
791	94.685				
792	94.677				
793	94.692				
794	94.675				
795	94.772				
796	94.797				
797	94.88				
798	94.807				
799	94.836				
800	94.824				
801	94.838				
802	94.891				
803	94.889				
804	94.885				
805	94.866				
806	94.868				
807	94.892				
808	94.884				
809	94.873				
810	94.919				
811	94.847				
812	94.815				
813	94.72				
814	94.692				
815	94.639				
816	94.658				
817	94.666				
818	94.604				
819	94.588				
820	94.527				
821	94.485				
822	94.429				
823	94.345				
824	94.296				
825	94.254				
826	94.182				
827	94.101				
828	94.086				
829	94.055				
830	94.037				
831	94.009				
832	93.99				
833	93.999				
834	93.994				
835	93.968				
836	93.955				
837	93.984				
838	94.031				
839	94.021				
840	94.057				
841	94.092				
842	94.149				
843	94.212				
844	94.257				
845	94.342				
846	94.366				
847	94.469				
848	94.505				
849	94.535				
850	94.56				
851	94.552				
852	94.576				
853	94.593				
854	94.621				
855	94.631				
856	94.593				
857	94.561				
858	94.531				
859	94.4				
860	94.32				
861	94.246				
862	94.127				
863	93.99				
864	93.84				
865	93.698				
866	93.499				
867	93.265				
868	93.021				
869	92.727				
870	92.504				
871	92.24				
872	92.027				
873	91.756				
874	91.506				
875	91.321				
876	91.088				
877	90.923				
878	90.724				
879	90.478				
880	90.338				
881	90.228				
882	90.082				
883	90.021				
884	89.949				
885	89.903				
886	89.884				
887	89.907				
888	89.966				
889	90.078				
890	90.211				
891	90.305				
892	90.477				
893	90.534				
894	90.665				
895	90.873				
896	91.104				
897	91.327				
898	91.567				
899	91.809				
900	92.097				
901	92.342				
902	92.547				
903	92.685				
904	92.86				
905	92.949				
906	92.972				
907	92.98				
908	92.926				
909	92.798				
910	92.618				
911	92.312				
912	91.931				
913	91.439				
914	90.842				
915	90.223				
916	89.503				
917	88.686				
918	87.817				
919	86.815				
920	85.757				
921	84.707				
922	83.526				
923	82.379				
924	81.155				
925	79.924				
926	78.632				
927	77.363				
928	76.186				
929	74.965				
930	73.76				
931	72.586				
932	71.401				
933	70.279				
934	69.209				
935	68.205				
936	67.288				
937	66.373				
938	65.476				
939	64.666				
940	63.915				
941	63.241				
942	62.639				
943	62.13				
944	61.66				
945	61.273				
946	60.98				
947	60.811				
948	60.68				
949	60.701				
950	60.812				
951	61.007				
952	61.355				
953	61.83				
954	62.42				
955	63.135				
956	64.031				
957	65.083				
958	66.314				
959	67.559				
960	68.892				
961	70.245				
962	71.514				
963	72.655				
964	73.599				
965	74.265				
966	74.56				
967	74.335				
968	73.53				
969	72.243				
970	70.498				
971	68.251				
972	65.922				
973	63.51				
974	61.152				
975	58.847				
976	56.887				
977	55.171				
978	53.712				
979	52.476				
980	51.536				
981	50.815				
982	50.277				
983	49.917				
984	49.681				
985	49.543				
986	49.477				
987	49.438				
988	49.398				
989	49.327				
990	49.187				
991	49.005				
992	48.716				
993	48.277				
994	47.724				
995	46.955				
996	46.12				
997	44.994				
998	43.751				
999	42.345				
1000	40.888				
