Wavelength	Transmittance	hex_color	Manufacturer	Name	Filter Number
380	0.252		Chroma		ZT543rdc
381	0.183				
382	0.093				
383	0.124				
384	0.004				
385	0.232				
386	0.197				
387	0.234				
388	0.218				
389	1.458				
390	6.334				
391	7.968				
392	6.659				
393	10.662				
394	12.683				
395	8.069				
396	6.91				
397	13.148				
398	20.321				
399	11.353				
400	4.576				
401	3.52				
402	6.621				
403	16.345				
404	16.06				
405	6.024				
406	3.025				
407	5.076				
408	14.088				
409	18.847				
410	8.709				
411	2.929				
412	2.677				
413	4.207				
414	4.322				
415	2.022				
416	0.691				
417	0.384				
418	0.376				
419	0.505				
420	0.862				
421	0.928				
422	0.538				
423	0.223				
424	0.112				
425	0.094				
426	0.096				
427	0.127				
428	0.245				
429	0.281				
430	0.238				
431	0.133				
432	0.066				
433	0.053				
434	0.062				
435	0.091				
436	0.138				
437	0.119				
438	0.112				
439	0.082				
440	0.074				
441	0.055				
442	0.053				
443	0.049				
444	0.057				
445	0.052				
446	0.084				
447	0.081				
448	0.069				
449	0.049				
450	0.059				
451	0.046				
452	0.035				
453	0.027				
454	0.056				
455	0.064				
456	0.087				
457	0.102				
458	0.083				
459	0.057				
460	0.051				
461	0.034				
462	0.043				
463	0.039				
464	0.056				
465	0.067				
466	0.091				
467	0.115				
468	0.102				
469	0.092				
470	0.057				
471	0.054				
472	0.05				
473	0.056				
474	0.054				
475	0.066				
476	0.106				
477	0.149				
478	0.197				
479	0.217				
480	0.2				
481	0.165				
482	0.13				
483	0.106				
484	0.111				
485	0.118				
486	0.142				
487	0.202				
488	0.316				
489	0.561				
490	0.917				
491	1.208				
492	1.049				
493	0.738				
494	0.508				
495	0.383				
496	0.323				
497	0.307				
498	0.322				
499	0.359				
500	0.437				
501	0.558				
502	0.78				
503	1.134				
504	1.586				
505	1.972				
506	2.101				
507	1.924				
508	1.59				
509	1.307				
510	1.139				
511	1.046				
512	1.043				
513	1.12				
514	1.282				
515	1.551				
516	1.945				
517	2.361				
518	2.509				
519	2.224				
520	1.666				
521	1.17				
522	0.816				
523	0.599				
524	0.474				
525	0.385				
526	0.331				
527	0.302				
528	0.282				
529	0.272				
530	0.271				
531	0.276				
532	0.293				
533	0.314				
534	0.343				
535	0.377				
536	0.428				
537	0.485				
538	0.544				
539	0.622				
540	0.7				
541	0.798				
542	0.918				
543	1.056				
544	1.228				
545	1.445				
546	1.695				
547	2.066				
548	2.554				
549	3.241				
550	4.175				
551	5.555				
552	7.551				
553	10.511				
554	14.585				
555	20.36				
556	27.896				
557	36.874				
558	45.924				
559	55.426				
560	67.526				
561	80.355				
562	90.519				
563	95.705				
564	97.251				
565	97.511				
566	97.571				
567	97.452				
568	97.545				
569	97.812				
570	97.908				
571	98.037				
572	98.089				
573	98.117				
574	98.102				
575	98.202				
576	98.318				
577	98.417				
578	98.465				
579	98.503				
580	98.414				
581	98.347				
582	98.261				
583	98.123				
584	98.012				
585	97.914				
586	97.903				
587	97.998				
588	98.167				
589	98.296				
590	98.445				
591	98.495				
592	98.435				
593	98.476				
594	98.326				
595	98.202				
596	98.062				
597	97.921				
598	97.928				
599	97.958				
600	97.986				
601	98.32				
602	98.468				
603	98.502				
604	98.748				
605	98.767				
606	98.649				
607	98.495				
608	98.495				
609	98.648				
610	98.539				
611	98.521				
612	98.575				
613	98.613				
614	98.68				
615	98.678				
616	98.688				
617	98.616				
618	98.493				
619	98.318				
620	98.208				
621	98.102				
622	98.075				
623	98.08				
624	98.073				
625	98.151				
626	98.295				
627	98.36				
628	98.405				
629	98.479				
630	98.547				
631	98.64				
632	98.656				
633	98.675				
634	98.606				
635	98.518				
636	98.426				
637	98.397				
638	98.319				
639	98.253				
640	98.292				
641	98.317				
642	98.374				
643	98.348				
644	98.449				
645	98.466				
646	98.542				
647	98.614				
648	98.598				
649	98.544				
650	98.545				
651	98.551				
652	98.491				
653	98.427				
654	98.355				
655	98.338				
656	98.32				
657	98.327				
658	98.339				
659	98.374				
660	98.399				
661	98.407				
662	98.452				
663	98.56				
664	98.6				
665	98.603				
666	98.59				
667	98.63				
668	98.628				
669	98.523				
670	98.6				
671	98.623				
672	98.643				
673	98.663				
674	98.659				
675	98.703				
676	98.807				
677	98.771				
678	98.76				
679	98.792				
680	98.606				
681	98.598				
682	98.57				
683	98.526				
684	98.529				
685	98.561				
686	98.489				
687	98.513				
688	98.403				
689	98.321				
690	98.317				
691	98.36				
692	98.429				
693	98.444				
694	98.505				
695	98.444				
696	98.489				
697	98.475				
698	98.555				
699	98.664				
700	98.7				
701	98.773				
702	98.776				
703	98.757				
704	98.699				
705	98.715				
706	98.725				
707	98.619				
708	98.778				
709	98.671				
710	98.711				
711	98.674				
712	98.682				
713	98.58				
714	98.52				
715	98.592				
716	98.603				
717	98.667				
718	98.457				
719	98.526				
720	98.444				
721	98.286				
722	98.325				
723	98.165				
724	98.14				
725	98.093				
726	98.138				
727	98.089				
728	98.129				
729	98.128				
730	98.135				
731	98.223				
732	98.241				
733	98.272				
734	98.346				
735	98.553				
736	98.642				
737	98.6				
738	98.532				
739	98.534				
740	98.628				
741	98.589				
742	98.444				
743	98.455				
744	98.365				
745	98.278				
746	98.398				
747	98.481				
748	98.453				
749	98.437				
750	98.479				
751	98.559				
752	98.607				
753	98.662				
754	98.625				
755	98.677				
756	98.784				
757	98.737				
758	98.747				
759	98.801				
760	98.804				
761	98.792				
762	98.687				
763	98.632				
764	98.579				
765	98.46				
766	98.406				
767	98.317				
768	98.227				
769	98.286				
770	98.251				
771	98.275				
772	98.362				
773	98.374				
774	98.474				
775	98.536				
776	98.681				
777	98.811				
778	98.903				
779	98.829				
780	98.871				
781	98.884				
782	98.911				
783	98.798				
784	98.73				
785	98.634				
786	98.454				
787	98.26				
788	98.124				
789	97.889				
790	97.748				
791	97.67				
792	97.572				
793	97.424				
794	97.361				
795	97.41				
796	97.424				
797	97.423				
798	97.52				
799	97.697				
800	97.922				
801	97.911				
802	98.033				
803	98.179				
804	98.203				
805	98.261				
806	98.329				
807	98.293				
808	98.17				
809	98.064				
810	97.913				
811	97.681				
812	97.306				
813	97.083				
814	96.842				
815	96.709				
816	96.494				
817	96.267				
818	96.233				
819	96.093				
820	96.123				
821	96.085				
822	96.033				
823	95.978				
824	95.985				
825	95.965				
826	95.771				
827	95.472				
828	95.095				
829	94.59				
830	93.916				
831	93.032				
832	92.129				
833	90.914				
834	89.725				
835	88.479				
836	87.145				
837	85.725				
838	84.397				
839	82.996				
840	81.692				
841	80.339				
842	79.147				
843	77.922				
844	76.794				
845	75.7				
846	74.705				
847	73.7				
848	72.787				
849	72.096				
850	71.335				
851	70.655				
852	70.172				
853	69.765				
854	69.501				
855	69.318				
856	69.437				
857	69.604				
858	70.056				
859	70.71				
860	71.357				
861	72.122				
862	72.838				
863	73.513				
864	73.798				
865	73.523				
866	72.641				
867	71.062				
868	68.642				
869	65.813				
870	62.676				
871	59.315				
872	56.151				
873	53.037				
874	50.472				
875	48.307				
876	46.532				
877	45.28				
878	44.389				
879	43.823				
880	43.702				
881	43.92				
882	44.418				
883	45.277				
884	46.433				
885	47.954				
886	49.74				
887	52.027				
888	54.704				
889	58.312				
890	63.055				
891	69.819				
892	76.559				
893	79.208				
894	74.451				
895	63.093				
896	51.509				
897	42.128				
898	36.162				
899	31.604				
900	28.179				
901	25.473				
902	23.055				
903	20.951				
904	19.326				
905	17.845				
906	16.645				
907	15.665				
908	14.828				
909	14.19				
910	13.714				
911	13.365				
912	13.194				
913	13.167				
914	13.321				
915	13.661				
916	14.185				
917	15.022				
918	16.178				
919	17.841				
920	20.125				
921	23.017				
922	27.132				
923	32.407				
924	38.652				
925	43.832				
926	45.972				
927	42.8				
928	35.098				
929	26.215				
930	18.362				
931	13.024				
932	9.132				
933	6.57				
934	4.794				
935	3.526				
936	2.679				
937	2.082				
938	1.638				
939	1.323				
940	1.066				
941	0.869				
942	0.716				
943	0.594				
944	0.501				
945	0.421				
946	0.361				
947	0.312				
948	0.265				
949	0.228				
950	0.208				
951	0.184				
952	0.163				
953	0.145				
954	0.127				
955	0.117				
956	0.105				
957	0.095				
958	0.086				
959	0.079				
960	0.068				
961	0.064				
962	0.061				
963	0.054				
964	0.052				
965	0.05				
966	0.048				
967	0.041				
968	0.035				
969	0.031				
970	0.034				
971	0.031				
972	0.027				
973	0.025				
974	0.025				
975	0.024				
976	0.021				
977	0.021				
978	0.021				
979	0.019				
980	0.014				
981	0.019				
982	0.017				
983	0.015				
984	0.014				
985	0.015				
986	0.015				
987	0.013				
988	0.013				
989	0.016				
990	0.019				
991	0.009				
992	0.011				
993	0.013				
994	0.018				
995	0.013				
996	0.01				
997	0.013				
998	0.008				
999	0.009				
1000	0.01				
