Wavelength	Transmittance	hex_color	Manufacturer	Name	Filter Number
300	0.0		Chroma		ZET405/488/561m
301	0.0				
302	0.0				
303	0.0				
304	0.0				
305	0.0				
306	0.0				
307	0.0				
308	0.0				
309	0.0				
310	0.0				
311	0.0				
312	0.0				
313	0.0				
314	0.0				
315	0.0				
316	0.0				
317	0.0				
318	0.0				
319	0.0				
320	0.0				
321	0.0				
322	0.0				
323	0.0				
324	0.0				
325	0.0				
326	0.0				
327	0.0				
328	0.0				
329	0.0				
330	0.0				
331	0.0				
332	0.0				
333	0.0				
334	0.0				
335	0.0				
336	0.0				
337	0.0				
338	0.0				
339	0.0				
340	0.0				
341	0.0				
342	0.0				
343	0.0				
344	0.0				
345	0.0				
346	0.0				
347	0.0				
348	0.0				
349	0.0				
350	0.0				
351	0.0				
352	0.0				
353	0.0				
354	0.0				
355	0.0				
356	0.0				
357	0.0				
358	0.0				
359	0.0				
360	0.0				
361	0.0				
362	0.0				
363	0.0				
364	0.0				
365	0.0				
366	0.0				
367	0.0				
368	0.0				
369	0.0				
370	0.0				
371	0.0				
372	0.0				
373	0.0				
374	0.0				
375	0.0				
376	0.0				
377	0.0				
378	0.0				
379	0.0				
380	0.0				
381	0.0				
382	0.0				
383	0.0				
384	0.0				
385	0.0				
386	0.0				
387	0.0				
388	0.0				
389	0.0				
390	0.0				
391	0.0				
392	0.0				
393	0.0				
394	0.0				
395	0.0				
396	0.0				
397	0.0				
398	0.0				
399	0.0				
400	0.0				
401	0.0				
402	0.0				
403	0.0				
404	0.0				
405	0.0				
406	0.0				
407	0.0				
408	0.0				
409	0.0				
410	0.0				
411	0.0				
412	0.0				
413	0.0				
414	0.0				
415	0.0				
416	0.001				
417	0.013				
418	0.112				
419	27.196				
420	88.02				
421	94.357				
422	93.988				
423	95.404				
424	95.885				
425	96.124				
426	96.709				
427	96.872				
428	96.833				
429	95.235				
430	96.189				
431	95.956				
432	96.568				
433	95.953				
434	95.545				
435	93.672				
436	94.446				
437	96.726				
438	96.87				
439	96.975				
440	97.171				
441	97.241				
442	96.717				
443	97.203				
444	96.929				
445	97.658				
446	97.618				
447	97.635				
448	97.628				
449	97.195				
450	97.188				
451	96.195				
452	95.089				
453	96.5				
454	96.901				
455	96.995				
456	96.226				
457	96.192				
458	97.377				
459	95.787				
460	96.091				
461	97.387				
462	97.385				
463	95.946				
464	96.363				
465	97.383				
466	94.93				
467	93.268				
468	96.364				
469	97.398				
470	94.635				
471	94.284				
472	96.864				
473	95.881				
474	72.472				
475	30.312				
476	0.501				
477	0.019				
478	0.002				
479	0.0				
480	0.0				
481	0.0				
482	0.0				
483	0.0				
484	0.0				
485	0.0				
486	0.0				
487	0.0				
488	0.0				
489	0.0				
490	0.0				
491	0.0				
492	0.0				
493	0.0				
494	0.0				
495	0.0				
496	0.0				
497	0.0				
498	0.0				
499	0.003				
500	0.056				
501	5.27				
502	58.921				
503	79.047				
504	86.285				
505	94.641				
506	95.689				
507	96.965				
508	97.889				
509	97.505				
510	95.126				
511	95.742				
512	98.255				
513	96.561				
514	93.249				
515	93.755				
516	96.228				
517	98.068				
518	98.783				
519	98.428				
520	98.215				
521	97.144				
522	96.848				
523	98.41				
524	98.389				
525	97.527				
526	98.366				
527	98.424				
528	96.909				
529	97.077				
530	97.679				
531	97.077				
532	97.887				
533	98.778				
534	98.836				
535	98.646				
536	97.112				
537	97.434				
538	98.466				
539	97.13				
540	95.872				
541	94.644				
542	94.523				
543	95.933				
544	97.253				
545	92.715				
546	75.235				
547	40.344				
548	1.027				
549	0.032				
550	0.003				
551	0.0				
552	0.0				
553	0.0				
554	0.0				
555	0.0				
556	0.0				
557	0.0				
558	0.0				
559	0.0				
560	0.0				
561	0.0				
562	0.0				
563	0.0				
564	0.0				
565	0.0				
566	0.0				
567	0.0				
568	0.0				
569	0.0				
570	0.0				
571	0.001				
572	0.007				
573	0.094				
574	3.727				
575	55.671				
576	96.312				
577	93.878				
578	97.092				
579	97.507				
580	92.801				
581	89.415				
582	92.143				
583	96.986				
584	99.019				
585	98.997				
586	97.929				
587	97.155				
588	97.783				
589	98.916				
590	99.344				
591	99.303				
592	98.493				
593	97.175				
594	96.789				
595	97.653				
596	98.625				
597	98.639				
598	98.441				
599	98.35				
600	98.196				
601	98.162				
602	98.655				
603	98.954				
604	98.702				
605	98.144				
606	97.544				
607	97.035				
608	96.907				
609	97.453				
610	98.347				
611	98.913				
612	98.921				
613	98.974				
614	98.808				
615	98.286				
616	97.492				
617	97.447				
618	98.273				
619	98.932				
620	98.66				
621	97.745				
622	97.108				
623	96.998				
624	97.249				
625	97.524				
626	97.981				
627	98.625				
628	99.099				
629	99.388				
630	99.37				
631	99.246				
632	99.088				
633	98.677				
634	97.936				
635	97.074				
636	96.179				
637	95.952				
638	96.602				
639	97.799				
640	98.941				
641	99.443				
642	99.447				
643	99.145				
644	98.678				
645	98.19				
646	97.981				
647	98.221				
648	98.77				
649	99.228				
650	99.171				
651	98.889				
652	98.725				
653	98.752				
654	98.682				
655	98.311				
656	97.745				
657	97.284				
658	97.326				
659	97.774				
660	98.612				
661	99.405				
662	99.782				
663	99.527				
664	98.662				
665	97.84				
666	97.592				
667	97.989				
668	98.558				
669	98.935				
670	98.9				
671	98.921				
672	99.219				
673	99.64				
674	99.854				
675	99.646				
676	99.049				
677	98.521				
678	98.322				
679	98.389				
680	98.755				
681	99.201				
682	99.454				
683	99.486				
684	99.244				
685	99.033				
686	99.019				
687	99.236				
688	99.579				
689	99.678				
690	99.513				
691	99.141				
692	98.77				
693	98.61				
694	98.641				
695	98.729				
696	98.935				
697	99.085				
698	99.11				
699	99.227				
700	99.354				
701	99.478				
702	99.556				
703	99.417				
704	99.284				
705	99.422				
706	99.499				
707	97.624				
708	89.224				
709	70.709				
710	47.58				
711	28.036				
712	15.635				
713	8.597				
714	4.76				
715	2.723				
716	1.593				
717	0.989				
718	0.67				
719	0.481				
720	0.377				
721	0.325				
722	0.313				
723	0.341				
724	0.432				
725	0.669				
726	1.383				
727	5.477				
728	21.87				
729	11.944				
730	3.683				
731	2.505				
732	3.003				
733	7.479				
734	21.585				
735	7.667				
736	1.337				
737	0.49				
738	0.243				
739	0.141				
740	0.092				
741	0.064				
742	0.048				
743	0.039				
744	0.033				
745	0.031				
746	0.032				
747	0.036				
748	0.044				
749	0.062				
750	0.102				
751	0.193				
752	0.42				
753	0.866				
754	1.145				
755	1.092				
756	1.121				
757	1.559				
758	3.487				
759	14.933				
760	21.483				
761	6.512				
762	2.965				
763	2.493				
764	3.411				
765	9.944				
766	45.565				
767	20.415				
768	3.524				
769	1.567				
770	1.069				
771	0.984				
772	1.073				
773	1.487				
774	2.683				
775	7.191				
776	34.216				
777	71.065				
778	30.154				
779	15.695				
780	14.02				
781	17.979				
782	30.302				
783	57.946				
784	85.527				
785	70.86				
786	37.975				
787	18.07				
788	9.152				
789	5.388				
790	3.675				
791	2.963				
792	2.753				
793	2.981				
794	3.697				
795	5.245				
796	8.273				
797	14.592				
798	31.13				
799	56.604				
800	28.262				
801	6.515				
802	2.126				
803	0.967				
804	0.526				
805	0.335				
806	0.244				
807	0.203				
808	0.186				
809	0.191				
810	0.215				
811	0.275				
812	0.41				
813	0.716				
814	1.532				
815	5.048				
816	26.131				
817	49.406				
818	27.13				
819	20.196				
820	17.148				
821	9.148				
822	3.769				
823	1.725				
824	0.989				
825	0.705				
826	0.57				
827	0.525				
828	0.545				
829	0.643				
830	0.862				
831	1.319				
832	2.447				
833	5.446				
834	12.07				
835	16.763				
836	14.331				
837	11.976				
838	12.249				
839	15.426				
840	21.817				
841	28.956				
842	31.336				
843	30.438				
844	33.23				
845	43.118				
846	47.467				
847	27.554				
848	11.274				
849	5.259				
850	3.266				
851	2.192				
852	1.723				
853	1.557				
854	1.609				
855	1.914				
856	2.685				
857	4.723				
858	11.655				
859	40.253				
860	61.959				
861	30.955				
862	12.072				
863	7.576				
864	6.352				
865	6.574				
866	8.137				
867	12.042				
868	20.63				
869	37.557				
870	56.969				
871	60.987				
872	53.269				
873	46.772				
874	40.892				
875	31.297				
876	20.831				
877	13.131				
878	8.698				
879	6.469				
880	5.42				
881	5.167				
882	5.62				
883	7.056				
884	10.208				
885	16.46				
886	22.63				
887	19.954				
888	12.546				
889	8.031				
890	5.878				
891	4.953				
892	4.792				
893	5.266				
894	6.568				
895	9.305				
896	14.901				
897	24.615				
898	35.251				
899	37.365				
900	33.422				
901	30.942				
902	31.781				
903	32.874				
904	27.758				
905	17.897				
906	10.292				
907	6.207				
908	4.175				
909	3.126				
910	2.609				
911	2.393				
912	2.424				
913	2.704				
914	3.367				
915	4.697				
916	7.516				
917	14.585				
918	31.983				
919	62.151				
920	67.765				
921	54.181				
922	51.195				
923	64.955				
924	88.514				
925	59.752				
926	22.507				
927	9.174				
928	4.74				
929	2.902				
930	1.998				
931	1.553				
932	1.321				
933	1.219				
934	1.22				
935	1.309				
936	1.501				
937	1.823				
938	2.26				
939	2.721				
940	2.942				
941	2.785				
942	2.391				
943	2.006				
944	1.733				
945	1.598				
946	1.558				
947	1.645				
948	1.858				
949	2.29				
950	3.046				
951	4.516				
952	7.31				
953	13.472				
954	26.978				
955	51.96				
956	79.119				
957	88.173				
958	90.409				
959	88.586				
960	69.525				
961	40.721				
962	22.059				
963	12.736				
964	8.272				
965	6.023				
966	4.843				
967	4.328				
968	4.223				
969	4.552				
970	5.426				
971	7.121				
972	10.268				
973	14.48				
974	15.93				
975	12.164				
976	8.001				
977	5.413				
978	4.034				
979	3.318				
980	3.005				
981	2.964				
982	3.163				
983	3.621				
984	4.324				
985	5.047				
986	5.182				
987	4.441				
988	3.308				
989	2.386				
990	1.766				
991	1.382				
992	1.145				
993	1.004				
994	0.94				
995	0.923				
996	0.959				
997	1.039				
998	1.204				
999	1.468				
1000	1.905				
1001	2.652				
1002	3.971				
1003	6.511				
1004	11.563				
1005	22.086				
1006	40.889				
1007	59.427				
1008	65.072				
1009	64.202				
1010	67.159				
1011	76.98				
1012	87.348				
1013	80.937				
1014	56.344				
1015	34.9				
1016	22.225				
1017	15.522				
1018	11.83				
1019	9.809				
1020	8.819				
1021	8.518				
1022	8.823				
1023	9.757				
1024	11.554				
1025	14.384				
1026	18.578				
1027	23.907				
1028	28.419				
1029	29.609				
1030	27.29				
1031	23.71				
1032	20.616				
1033	18.615				
1034	17.47				
1035	16.942				
1036	16.574				
1037	15.824				
1038	14.36				
1039	12.237				
1040	9.877				
1041	7.841				
1042	6.239				
1043	5.108				
1044	4.318				
1045	3.799				
1046	3.495				
1047	3.343				
1048	3.34				
1049	3.473				
1050	3.799				
1051	4.337				
1052	5.211				
1053	6.632				
1054	8.868				
1055	12.594				
1056	18.78				
1057	29.012				
1058	43.978				
1059	58.646				
1060	64.928				
1061	62.371				
1062	57.703				
1063	54.863				
1064	55.029				
1065	58.001				
1066	62.136				
1067	63.512				
1068	58.666				
1069	48.791				
1070	37.961				
1071	28.754				
1072	22.466				
1073	18.379				
1074	15.825				
1075	14.18				
1076	13.441				
1077	13.568				
1078	14.191				
1079	15.606				
1080	18.162				
1081	22.059				
1082	27.169				
1083	33.834				
1084	40.464				
1085	43.047				
1086	40.043				
1087	33.933				
1088	27.964				
1089	22.579				
1090	18.707				
1091	16.303				
1092	14.328				
1093	12.891				
1094	12.133				
1095	11.358				
1096	10.797				
1097	10.576				
1098	10.121				
1099	9.943				
1100	9.943				
