Wavelength	Transmittance	hex_color	Manufacturer	Name	Filter Number
351	0.11		Chroma		ZT405/532rpc
352	0.12				
353	0.163				
354	0.157				
355	0.106				
356	0.083				
357	0.162				
358	0.282				
359	0.334				
360	0.342				
361	0.678				
362	1.289				
363	1.39				
364	0.908				
365	0.789				
366	2.028				
367	3.866				
368	3.753				
369	2.367				
370	1.512				
371	1.073				
372	0.82				
373	0.834				
374	1.334				
375	2.983				
376	5.421				
377	7.375				
378	8.964				
379	10.467				
380	10.847				
381	10.03				
382	10.09				
383	14.603				
384	24.643				
385	36.558				
386	45.526				
387	50.582				
388	53.665				
389	46.771				
390	26.629				
391	12.501				
392	6.999				
393	6.508				
394	11.298				
395	20.85				
396	20.97				
397	10.892				
398	5.21				
399	10.017				
400	15.385				
401	9.451				
402	2.005				
403	0.403				
404	0.239				
405	0.167				
406	0.197				
407	0.165				
408	0.177				
409	0.147				
410	0.166				
411	0.187				
412	0.231				
413	0.361				
414	0.655				
415	1.417				
416	3.898				
417	9.433				
418	19.892				
419	32.924				
420	42.865				
421	48.369				
422	54.014				
423	65.323				
424	81.163				
425	92.088				
426	95.93				
427	96.377				
428	96.555				
429	96.235				
430	96.13				
431	96.235				
432	96.393				
433	96.587				
434	96.677				
435	96.472				
436	96.656				
437	96.315				
438	96.391				
439	96.721				
440	97.338				
441	97.594				
442	97.7				
443	97.623				
444	97.37				
445	97.214				
446	97.164				
447	97.492				
448	97.525				
449	97.439				
450	97.108				
451	96.638				
452	96.582				
453	96.835				
454	97.184				
455	97.746				
456	98.113				
457	97.955				
458	97.858				
459	97.723				
460	97.921				
461	97.796				
462	97.578				
463	97.537				
464	97.442				
465	97.212				
466	97.007				
467	97.257				
468	97.05				
469	97.013				
470	97.061				
471	97.055				
472	97.282				
473	97.422				
474	97.504				
475	97.539				
476	97.492				
477	97.469				
478	97.3				
479	97.016				
480	96.946				
481	96.887				
482	96.934				
483	96.85				
484	96.99				
485	96.996				
486	96.767				
487	96.533				
488	96.284				
489	96.504				
490	96.651				
491	97.003				
492	97.372				
493	97.531				
494	97.573				
495	97.412				
496	97.077				
497	96.95				
498	96.834				
499	96.921				
500	96.919				
501	96.851				
502	96.946				
503	96.834				
504	96.917				
505	96.83				
506	96.881				
507	96.915				
508	96.8				
509	96.99				
510	97.067				
511	96.643				
512	94.406				
513	87.195				
514	75.261				
515	59.371				
516	43.495				
517	31.38				
518	21.82				
519	15.592				
520	11.189				
521	8.32				
522	6.42				
523	5.254				
524	4.404				
525	3.806				
526	3.38				
527	3.115				
528	2.953				
529	2.882				
530	2.89				
531	2.976				
532	3.17				
533	3.414				
534	3.831				
535	4.472				
536	5.291				
537	6.359				
538	7.877				
539	10.135				
540	13.353				
541	17.787				
542	23.976				
543	31.476				
544	39.385				
545	47.885				
546	56.64				
547	65.556				
548	74.817				
549	83.645				
550	90.361				
551	93.792				
552	95.014				
553	95.305				
554	95.771				
555	96.287				
556	96.926				
557	97.413				
558	97.774				
559	97.839				
560	97.634				
561	97.375				
562	97.078				
563	96.916				
564	96.876				
565	96.98				
566	97.116				
567	97.115				
568	97.183				
569	97.038				
570	96.937				
571	96.913				
572	96.934				
573	97.083				
574	97.076				
575	97.318				
576	97.464				
577	97.668				
578	97.829				
579	97.7				
580	97.831				
581	97.911				
582	98.128				
583	98.051				
584	97.792				
585	97.712				
586	97.574				
587	97.553				
588	97.233				
589	97.56				
590	97.358				
591	97.284				
592	97.099				
593	97.111				
594	96.69				
595	96.952				
596	96.977				
597	96.746				
598	97.074				
599	97.307				
600	97.683				
601	97.496				
602	96.72				
603	96.992				
604	98.571				
605	98.077				
606	97.907				
607	97.923				
608	97.966				
609	97.667				
610	97.554				
611	97.553				
612	97.957				
613	98.259				
614	97.751				
615	98.243				
616	98.068				
617	98.034				
618	97.884				
619	97.951				
620	97.993				
621	98.053				
622	97.761				
623	97.667				
624	97.734				
625	97.366				
626	97.585				
627	97.642				
628	97.534				
629	97.432				
630	97.32				
631	97.519				
632	97.794				
633	97.372				
634	97.798				
635	97.815				
636	97.541				
637	97.902				
638	98.075				
639	98.006				
640	98.185				
641	98.219				
642	98.175				
643	98.342				
644	98.317				
645	98.249				
646	98.353				
647	98.34				
648	98.274				
649	98.217				
650	97.855				
651	98.078				
652	97.977				
653	97.774				
654	97.793				
655	97.961				
656	97.809				
657	97.773				
658	97.901				
659	98.109				
660	98.153				
661	98.202				
662	98.159				
663	98.241				
664	98.11				
665	98.315				
666	98.153				
667	98.213				
668	98.19				
669	98.137				
670	98.046				
671	97.841				
672	98.034				
673	98.143				
674	97.879				
675	98.086				
676	98.097				
677	98.223				
678	98.056				
679	98.276				
680	98.387				
681	98.21				
682	98.574				
683	98.385				
684	98.163				
685	98.407				
686	98.431				
687	98.52				
688	98.448				
689	98.255				
690	98.392				
691	98.363				
692	98.423				
693	98.462				
694	98.213				
695	98.294				
696	98.303				
697	98.305				
698	98.385				
699	98.382				
700	98.333				
701	98.441				
702	98.297				
703	98.325				
704	98.384				
705	98.417				
706	98.214				
707	98.37				
708	98.347				
709	98.158				
710	98.081				
711	97.903				
712	97.87				
713	98.155				
714	98.011				
715	98.184				
716	98.047				
717	98.037				
718	98.126				
719	98.15				
720	98.105				
721	98.001				
722	98.215				
723	98.267				
724	98.197				
725	98.239				
726	98.202				
727	98.337				
728	98.198				
729	98.363				
730	98.312				
731	98.244				
732	98.207				
733	98.097				
734	97.955				
735	98.17				
736	98.111				
737	98.132				
738	97.845				
739	97.883				
740	97.82				
741	97.556				
742	97.53				
743	97.76				
744	97.657				
745	97.527				
746	97.561				
747	97.348				
748	97.239				
749	96.945				
750	96.796				
751	96.459				
752	95.729				
753	94.696				
754	93.583				
755	91.999				
756	90.192				
757	88.138				
758	85.676				
759	82.87				
760	79.916				
761	76.802				
762	74.084				
763	71.131				
764	68.395				
765	65.717				
766	63.769				
767	62.072				
768	60.546				
769	59.696				
770	59.429				
771	59.733				
772	60.795				
773	62.529				
774	65.292				
775	69.036				
776	73.69				
777	77.921				
778	81.49				
779	82.828				
780	81.326				
781	77.436				
782	72.541				
783	67.587				
784	62.81				
785	58.056				
786	53.031				
787	47.908				
788	42.047				
789	36.385				
790	31.201				
791	26.363				
792	22.169				
793	18.657				
794	15.673				
795	13.393				
796	11.553				
797	9.836				
798	8.6				
799	7.566				
800	6.695				
801	5.99				
802	5.382				
803	4.849				
804	4.431				
805	4.098				
806	3.793				
807	3.542				
808	3.33				
809	3.141				
810	2.99				
811	2.875				
812	2.773				
813	2.685				
814	2.612				
815	2.56				
816	2.521				
817	2.488				
818	2.467				
819	2.457				
820	2.461				
821	2.461				
822	2.476				
823	2.486				
824	2.514				
825	2.539				
826	2.567				
827	2.606				
828	2.644				
829	2.686				
830	2.727				
831	2.769				
832	2.817				
833	2.863				
834	2.905				
835	2.956				
836	3.016				
837	3.077				
838	3.139				
839	3.207				
840	3.289				
841	3.382				
842	3.487				
843	3.6				
844	3.731				
845	3.877				
846	4.055				
847	4.302				
848	4.556				
849	4.855				
850	5.229				
851	5.699				
852	6.285				
853	6.946				
854	7.762				
855	8.819				
856	10.112				
857	11.916				
858	14.159				
859	17.135				
860	21.107				
861	26.292				
862	32.329				
863	39.313				
864	46.513				
865	52.046				
866	55.565				
867	58.046				
868	60.795				
869	63.087				
870	60.343				
871	49.981				
872	35.763				
873	25.422				
874	18.532				
875	14.695				
876	12.121				
877	10.211				
878	8.935				
879	7.963				
880	7.182				
881	6.607				
882	6.163				
883	5.794				
884	5.526				
885	5.305				
886	5.155				
887	5.05				
888	5.002				
889	4.986				
890	5.009				
891	5.08				
892	5.173				
893	5.319				
894	5.52				
895	5.769				
896	6.074				
897	6.438				
898	6.924				
899	7.458				
900	8.19				
901	9.027				
902	9.97				
903	11.276				
904	12.778				
905	14.651				
906	17.048				
907	19.848				
908	23.515				
909	27.812				
910	32.626				
911	38.402				
912	43.995				
913	49.22				
914	53.964				
915	57.743				
916	60.977				
917	64.116				
918	67.943				
919	72.273				
920	73.96				
921	71.316				
922	64.513				
923	55.346				
924	46.81				
925	40.101				
926	35.445				
927	31.846				
928	29.235				
929	27.41				
930	26.118				
931	25.241				
932	24.778				
933	24.57				
934	24.644				
935	24.987				
936	25.569				
937	26.41				
938	27.587				
939	28.964				
940	30.666				
941	32.79				
942	35.199				
943	37.916				
944	41.287				
945	44.998				
946	49.384				
947	54.01				
948	59.125				
949	64.217				
950	68.788				
951	72.288				
952	74.13				
953	73.47				
954	69.904				
955	64.375				
956	57.828				
957	51.187				
958	45.386				
959	40.069				
960	35.297				
961	31.639				
962	28.7				
963	26.148				
964	24.031				
965	22.232				
966	20.733				
967	19.402				
968	18.319				
969	17.44				
970	16.705				
971	16.043				
972	15.548				
973	15.143				
974	14.83				
975	14.584				
976	14.378				
977	14.281				
978	14.222				
979	14.22				
980	14.268				
981	14.376				
982	14.54				
983	14.737				
984	14.956				
985	15.256				
986	15.608				
987	15.935				
988	16.325				
989	16.797				
990	17.256				
991	17.793				
992	18.324				
993	18.924				
994	19.536				
995	20.201				
996	20.899				
997	21.681				
998	22.382				
999	23.187				
1000	24.016				
1001	24.83				
1002	25.729				
1003	26.509				
1004	27.38				
1005	28.237				
1006	29.207				
1007	30.149				
1008	30.989				
1009	32.017				
1010	33.003				
1011	34.036				
1012	35.105				
1013	36.172				
1014	37.432				
1015	38.687				
1016	40.003				
1017	41.459				
1018	43.008				
1019	44.654				
1020	46.364				
1021	48.203				
1022	50.297				
1023	52.359				
1024	54.646				
1025	57.04				
1026	59.618				
1027	62.178				
1028	64.966				
1029	67.868				
1030	70.847				
1031	73.83				
1032	76.784				
1033	79.479				
1034	82.112				
1035	84.242				
1036	85.871				
1037	87.012				
1038	87.369				
1039	87.194				
1040	85.912				
1041	84.165				
1042	81.873				
1043	79.08				
1044	75.988				
1045	72.878				
1046	69.942				
1047	66.752				
1048	64.115				
1049	61.692				
1050	59.362				
1051	57.251				
1052	55.464				
1053	53.859				
1054	52.494				
1055	51.359				
1056	50.481				
1057	49.763				
1058	49.223				
1059	48.803				
1060	48.617				
1061	48.546				
1062	48.752				
1063	48.99				
1064	49.292				
1065	49.878				
1066	50.523				
1067	51.348				
1068	52.308				
1069	53.449				
1070	54.748				
1071	0.0				
