Wavelength	Transmittance	hex_color	Manufacturer	Name	Filter Number
300	0.0		Chroma		zet514topnotch0
301	0.0				
302	0.0				
303	0.0				
304	0.0				
305	0.001				
306	0.003				
307	0.015				
308	0.071				
309	0.258				
310	0.482				
311	0.388				
312	0.265				
313	0.439				
314	1.363				
315	2.26				
316	1.355				
317	0.841				
318	0.933				
319	1.933				
320	2.654				
321	0.884				
322	0.23				
323	0.088				
324	0.05				
325	0.04				
326	0.049				
327	0.11				
328	0.242				
329	0.123				
330	0.067				
331	0.057				
332	0.046				
333	0.059				
334	0.1				
335	0.042				
336	0.016				
337	0.009				
338	0.007				
339	0.007				
340	0.006				
341	0.009				
342	0.017				
343	0.038				
344	0.121				
345	0.467				
346	2.033				
347	9.923				
348	40.626				
349	79.415				
350	88.908				
351	89.713				
352	90.879				
353	92.261				
354	92.344				
355	92.331				
356	92.907				
357	93.429				
358	94.223				
359	93.759				
360	94.426				
361	94.309				
362	94.451				
363	93.982				
364	94.323				
365	94.305				
366	94.389				
367	94.228				
368	94.598				
369	94.725				
370	94.686				
371	95.193				
372	95.757				
373	95.637				
374	95.83				
375	96.227				
376	96.488				
377	96.218				
378	96.204				
379	95.856				
380	95.988				
381	95.713				
382	95.51				
383	95.088				
384	95.767				
385	95.629				
386	95.992				
387	96.602				
388	96.679				
389	96.333				
390	95.727				
391	95.505				
392	95.177				
393	94.989				
394	95.39				
395	95.423				
396	96.305				
397	96.209				
398	96.31				
399	96.253				
400	96.372				
401	95.913				
402	95.384				
403	95.116				
404	95.292				
405	95.797				
406	95.895				
407	95.942				
408	95.969				
409	95.941				
410	95.938				
411	95.602				
412	95.492				
413	95.271				
414	94.894				
415	94.913				
416	95.123				
417	95.031				
418	95.716				
419	95.06				
420	94.293				
421	94.218				
422	93.618				
423	93.921				
424	94.076				
425	93.711				
426	93.315				
427	94.871				
428	95.355				
429	95.868				
430	95.911				
431	96.061				
432	95.938				
433	95.368				
434	95.148				
435	95.013				
436	94.45				
437	93.983				
438	94.438				
439	94.761				
440	94.83				
441	95.363				
442	95.83				
443	95.215				
444	96.206				
445	96.604				
446	96.124				
447	96.197				
448	95.99				
449	96.002				
450	95.515				
451	96.159				
452	96.443				
453	96.525				
454	97.097				
455	97.318				
456	97.049				
457	97.226				
458	96.751				
459	96.707				
460	96.961				
461	95.99				
462	95.583				
463	95.524				
464	95.038				
465	95.162				
466	94.492				
467	94.75				
468	95.376				
469	95.713				
470	95.986				
471	95.86				
472	95.656				
473	95.673				
474	95.231				
475	96.255				
476	94.727				
477	95.452				
478	95.215				
479	94.414				
480	95.425				
481	94.192				
482	95.446				
483	94.611				
484	96.0				
485	95.866				
486	95.922				
487	96.194				
488	95.642				
489	96.553				
490	96.012				
491	96.526				
492	95.997				
493	95.853				
494	95.217				
495	94.819				
496	95.336				
497	92.885				
498	94.632				
499	94.129				
500	94.781				
501	95.186				
502	96.08				
503	95.495				
504	50.492				
505	1.8				
506	0.016				
507	0.0				
508	0.0				
509	0.0				
510	0.0				
511	0.0				
512	0.0				
513	0.0				
514	0.0				
515	0.0				
516	0.0				
517	0.0				
518	0.01				
519	0.714				
520	44.725				
521	94.818				
522	96.075				
523	95.796				
524	95.816				
525	95.985				
526	95.608				
527	94.925				
528	95.102				
529	94.695				
530	94.129				
531	94.205				
532	93.828				
533	93.812				
534	93.254				
535	93.174				
536	93.953				
537	93.641				
538	93.193				
539	94.194				
540	94.308				
541	94.481				
542	94.876				
543	95.006				
544	95.231				
545	95.755				
546	95.428				
547	95.563				
548	95.97				
549	95.4				
550	95.41				
551	95.336				
552	95.702				
553	95.438				
554	95.468				
555	95.403				
556	94.717				
557	95.107				
558	94.14				
559	94.336				
560	95.542				
561	94.99				
562	95.351				
563	95.112				
564	94.475				
565	95.452				
566	95.251				
567	95.476				
568	94.999				
569	94.628				
570	95.25				
571	94.523				
572	94.964				
573	95.084				
574	94.307				
575	94.647				
576	94.133				
577	94.179				
578	94.286				
579	93.456				
580	94.248				
581	94.107				
582	93.18				
583	94.414				
584	94.354				
585	93.843				
586	94.597				
587	93.876				
588	93.917				
589	94.646				
590	93.56				
591	94.0				
592	94.747				
593	93.633				
594	94.525				
595	95.038				
596	93.924				
597	94.942				
598	95.212				
599	94.282				
600	95.618				
601	95.447				
602	94.897				
603	96.404				
604	95.935				
605	94.792				
606	96.381				
607	95.764				
608	94.699				
609	96.196				
610	96.48				
611	94.896				
612	96.246				
613	96.341				
614	94.838				
615	96.01				
616	96.341				
617	94.144				
618	95.192				
619	96.317				
620	94.527				
621	94.497				
622	96.269				
623	94.946				
624	94.311				
625	96.333				
626	95.524				
627	94.559				
628	96.118				
629	96.249				
630	94.415				
631	95.307				
632	96.551				
633	94.813				
634	94.862				
635	96.866				
636	95.742				
637	94.58				
638	96.227				
639	96.606				
640	94.696				
641	95.372				
642	96.634				
643	95.705				
644	94.782				
645	96.149				
646	96.159				
647	94.243				
648	94.982				
649	96.353				
650	94.939				
651	94.152				
652	95.645				
653	95.629				
654	94.157				
655	94.744				
656	96.123				
657	95.256				
658	94.38				
659	95.484				
660	95.964				
661	94.818				
662	94.821				
663	96.175				
664	95.539				
665	94.181				
666	95.008				
667	96.275				
668	95.387				
669	94.482				
670	95.628				
671	95.873				
672	94.495				
673	94.023				
674	95.563				
675	95.873				
676	94.299				
677	94.043				
678	95.491				
679	95.136				
680	93.606				
681	93.72				
682	95.303				
683	94.9				
684	93.322				
685	93.88				
686	95.385				
687	95.086				
688	93.74				
689	94.277				
690	95.667				
691	95.726				
692	94.372				
693	94.846				
694	96.128				
695	96.105				
696	95.14				
697	95.245				
698	96.341				
699	96.277				
700	95.095				
701	95.4				
702	96.566				
703	96.426				
704	95.052				
705	95.025				
706	96.259				
707	96.659				
708	95.003				
709	94.496				
710	95.366				
711	96.513				
712	95.819				
713	95.035				
714	95.593				
715	96.343				
716	95.81				
717	94.661				
718	95.125				
719	96.123				
720	96.71				
721	95.575				
722	95.311				
723	96.383				
724	97.3				
725	95.959				
726	95.024				
727	95.485				
728	96.656				
729	96.859				
730	95.474				
731	95.346				
732	96.426				
733	97.471				
734	96.614				
735	95.755				
736	95.982				
737	96.806				
738	97.308				
739	95.74				
740	95.439				
741	96.136				
742	97.248				
743	96.624				
744	94.879				
745	94.817				
746	95.657				
747	96.917				
748	95.737				
749	94.256				
750	94.172				
751	96.245				
752	96.595				
753	95.037				
754	93.236				
755	93.94				
756	95.452				
757	95.941				
758	94.642				
759	94.338				
760	93.643				
761	95.785				
762	96.368				
763	95.015				
764	93.923				
765	94.716				
766	95.823				
767	96.337				
768	96.447				
769	95.152				
770	95.645				
771	96.618				
772	96.903				
773	96.165				
774	95.098				
775	95.201				
776	96.991				
777	97.157				
778	96.314				
779	95.355				
780	95.263				
781	96.456				
782	97.296				
783	96.554				
784	95.395				
785	95.843				
786	95.621				
787	96.395				
788	96.604				
789	95.925				
790	94.934				
791	95.034				
792	95.648				
793	96.753				
794	95.369				
795	94.999				
796	94.709				
797	94.228				
798	95.342				
799	95.279				
800	95.763				
801	95.604				
802	95.822				
803	96.314				
804	96.515				
805	96.312				
806	96.048				
807	95.909				
808	96.104				
809	96.532				
810	96.642				
811	96.328				
812	96.175				
813	96.391				
814	96.856				
815	97.196				
816	97.111				
817	96.79				
818	96.607				
819	96.789				
820	97.157				
821	97.447				
822	97.368				
823	97.116				
824	97.168				
825	97.396				
826	97.523				
827	97.41				
828	97.196				
829	97.019				
830	97.011				
831	97.294				
832	97.533				
833	97.386				
834	97.111				
835	96.994				
836	96.969				
837	97.051				
838	97.035				
839	96.83				
840	96.548				
841	96.398				
842	96.556				
843	96.736				
844	96.773				
845	96.699				
846	96.524				
847	96.373				
848	96.454				
849	96.678				
850	96.675				
851	96.47				
852	96.383				
853	96.395				
854	96.696				
855	97.048				
856	96.962				
857	96.632				
858	96.298				
859	96.132				
860	96.166				
861	96.472				
862	96.993				
863	97.2				
864	97.008				
865	96.957				
866	97.044				
867	97.249				
868	97.673				
869	97.913				
870	97.696				
871	97.353				
872	97.196				
873	97.437				
874	97.8				
875	97.89				
876	97.801				
877	97.557				
878	97.219				
879	97.031				
880	97.236				
881	97.494				
882	97.616				
883	97.345				
884	96.758				
885	96.47				
886	96.548				
887	97.0				
888	97.505				
889	97.641				
890	97.373				
891	96.887				
892	96.486				
893	96.461				
894	96.787				
895	97.268				
896	97.387				
897	97.006				
898	96.647				
899	96.38				
900	96.481				
901	96.866				
902	97.198				
903	97.296				
904	96.987				
905	96.517				
906	96.147				
907	96.231				
908	96.598				
909	96.846				
910	96.909				
911	96.715				
912	96.303				
913	96.093				
914	96.143				
915	96.303				
916	96.691				
917	96.992				
918	96.794				
919	96.376				
920	96.018				
921	95.743				
922	95.91				
923	96.353				
924	96.72				
925	96.702				
926	96.317				
927	95.965				
928	95.779				
929	95.824				
930	96.036				
931	96.318				
932	96.487				
933	96.452				
934	96.134				
935	95.825				
936	95.833				
937	96.016				
938	96.313				
939	96.616				
940	96.716				
941	96.53				
942	96.113				
943	95.766				
944	95.774				
945	96.012				
946	96.243				
947	96.428				
948	96.46				
949	96.278				
950	95.954				
951	95.722				
952	95.787				
953	96.055				
954	96.31				
955	96.414				
956	96.402				
957	96.166				
958	95.838				
959	95.707				
960	95.847				
961	96.021				
962	96.186				
963	96.322				
964	96.221				
965	95.94				
966	95.751				
967	95.784				
968	95.843				
969	96.083				
970	96.474				
971	96.68				
972	96.601				
973	96.206				
974	95.933				
975	95.843				
976	95.921				
977	96.303				
978	96.594				
979	96.785				
980	96.817				
981	96.666				
982	96.557				
983	96.461				
984	96.479				
985	96.705				
986	96.978				
987	97.193				
988	97.112				
989	96.814				
990	96.54				
991	96.276				
992	96.32				
993	96.604				
994	96.927				
995	97.341				
996	97.574				
997	97.477				
998	97.335				
999	97.125				
1000	97.079				
1001	97.14				
1002	97.166				
1003	97.259				
1004	97.459				
1005	97.468				
1006	97.315				
1007	97.004				
1008	96.736				
1009	96.612				
1010	96.609				
1011	96.858				
1012	97.206				
1013	97.286				
1014	97.23				
1015	96.952				
1016	96.429				
1017	96.125				
1018	95.941				
1019	95.996				
1020	96.268				
1021	96.586				
1022	96.828				
1023	96.727				
1024	96.422				
1025	96.095				
1026	95.895				
1027	95.745				
1028	95.794				
1029	96.066				
1030	96.474				
1031	96.675				
1032	96.629				
1033	96.48				
1034	96.146				
1035	95.79				
1036	95.503				
1037	95.521				
1038	95.753				
1039	96.083				
1040	96.466				
1041	96.627				
1042	96.584				
1043	96.412				
1044	96.137				
1045	95.842				
1046	95.715				
1047	95.917				
1048	96.282				
1049	96.736				
1050	97.062				
1051	97.118				
1052	96.967				
1053	96.568				
1054	96.184				
1055	96.047				
1056	96.12				
1057	96.29				
1058	96.672				
1059	97.244				
1060	97.504				
1061	97.53				
1062	97.383				
1063	96.99				
1064	96.556				
1065	96.379				
1066	96.399				
1067	96.603				
1068	97.018				
1069	97.448				
1070	97.689				
1071	97.691				
1072	97.47				
1073	97.034				
1074	96.762				
1075	96.615				
1076	96.628				
1077	96.825				
1078	97.19				
1079	97.609				
1080	97.824				
1081	97.885				
1082	97.662				
1083	97.258				
1084	96.823				
1085	96.501				
1086	96.357				
1087	96.489				
1088	96.86				
1089	97.138				
1090	97.47				
1091	97.688				
1092	97.622				
1093	97.261				
1094	96.892				
1095	96.651				
1096	96.497				
1097	96.469				
1098	96.633				
1099	97.035				
1100					
