Wavelength	Transmittance	hex_color	Manufacturer	Name	Filter Number
500	3.572		Chroma		RT532rdc
501	2.175				
502	3.289				
503	3.863				
504	4.616				
505	8.063				
506	8.438				
507	4.006				
508	0.684				
509	0.126				
510	0.064				
511	0.044				
512	0.034				
513	0.03				
514	0.023				
515	0.023				
516	0.024				
517	0.025				
518	0.025				
519	0.024				
520	0.028				
521	0.028				
522	0.03				
523	0.031				
524	0.034				
525	0.042				
526	0.055				
527	0.073				
528	0.102				
529	0.16				
530	0.252				
531	0.491				
532	0.985				
533	2.236				
534	5.928				
535	15.235				
536	32.369				
537	54.822				
538	77.04				
539	90.949				
540	94.572				
541	95.471				
542	95.761				
543	95.704				
544	95.595				
545	95.632				
546	95.816				
547	95.973				
548	96.15				
549	96.323				
550	96.573				
551	96.621				
552	96.513				
553	96.23				
554	95.949				
555	95.646				
556	95.62				
557	95.871				
558	96.194				
559	96.333				
560	96.482				
561	96.662				
562	96.448				
563	96.109				
564	96.117				
565	96.161				
566	96.492				
567	96.657				
568	96.868				
569	97.027				
570	96.906				
571	96.569				
572	96.345				
573	96.299				
574	96.119				
575	96.244				
576	96.444				
577	96.52				
578	96.734				
579	96.674				
580	96.541				
581	96.543				
582	96.253				
583	96.254				
584	96.298				
585	96.522				
586	96.575				
587	96.703				
588	96.905				
589	96.771				
590	96.625				
591	96.712				
592	96.434				
593	96.347				
594	96.412				
595	96.486				
596	96.669				
597	96.655				
598	96.838				
599	96.717				
600	96.847				
601	96.68				
602	97.374				
603	97.232				
604	96.709				
605	96.768				
606	96.714				
607	96.802				
608	96.876				
609	96.971				
610	96.916				
611	97.028				
612	96.982				
613	96.844				
614	96.743				
615	96.841				
616	96.812				
617	96.843				
618	97.063				
619	96.996				
620	97.028				
621	97.033				
622	96.814				
623	96.722				
624	96.579				
625	96.426				
626	96.336				
627	96.328				
628	96.408				
629	96.467				
630	96.608				
631	96.652				
632	96.696				
633	96.681				
634	96.647				
635	96.656				
636	96.684				
637	96.54				
638	96.496				
639	96.527				
640	96.585				
641	96.714				
642	96.808				
643	96.98				
644	97.088				
645	97.095				
646	97.147				
647	97.084				
648	97.024				
649	96.926				
650	96.878				
651	96.88				
652	96.926				
653	97.067				
654	97.238				
655	97.384				
656	97.582				
657	97.362				
658	97.305				
659	97.126				
660	96.839				
661	96.579				
662	96.358				
663	96.235				
664	96.122				
665	96.095				
666	96.195				
667	96.306				
668	96.463				
669	96.674				
670	96.837				
671	96.986				
672	97.011				
673	97.048				
674	96.9				
675	96.757				
676	96.624				
677	96.499				
678	96.413				
679	96.377				
680	96.438				
681	96.589				
682	96.795				
683	96.849				
684	96.968				
685	97.076				
686	97.147				
687	97.13				
688	97.15				
689	97.123				
690	97.087				
691	96.998				
692	96.938				
693	96.958				
694	97.07				
695	97.072				
696	97.114				
697	97.3				
698	97.404				
699	97.525				
700	97.452				
701	97.29				
702	97.078				
703	97.087				
704	96.739				
705	96.671				
706	96.601				
707	96.507				
708	96.452				
709	96.466				
710	96.612				
711	96.688				
712	96.943				
713	97.11				
714	97.328				
715	97.244				
716	97.24				
717	97.19				
718	96.937				
719	96.569				
720	96.366				
721	96.162				
722	96.063				
723	96.14				
724	96.137				
725	96.341				
726	96.481				
727	96.683				
728	96.955				
729	97.19				
730	97.401				
731	97.65				
732	97.688				
733	97.691				
734	97.573				
735	97.438				
736	97.22				
737	96.966				
738	97.001				
739	96.93				
740	96.787				
741	96.816				
742	96.827				
743	96.946				
744	97.1				
745	97.141				
746	97.179				
747	97.172				
748	97.247				
749	97.154				
750	97.065				
751	96.866				
752	96.709				
753	96.471				
754	96.286				
755	95.913				
756	95.83				
757	95.751				
758	95.655				
759	95.745				
760	95.927				
761	96.144				
762	96.421				
763	96.683				
764	97.045				
765	97.263				
766	97.45				
767	97.5				
768	97.475				
769	97.595				
770	97.56				
771	97.43				
772	97.28				
773	97.138				
774	96.91				
775	96.845				
776	96.768				
777	96.813				
778	96.835				
779	96.911				
780	96.925				
781	96.969				
782	96.987				
783	96.972				
784	97.065				
785	96.931				
786	96.978				
787	97.077				
788	97.066				
789	97.026				
790	97.188				
791	97.15				
792	97.115				
793	96.93				
794	96.999				
795	97.162				
796	96.966				
797	96.777				
798	96.789				
799	96.763				
800	96.649				
801	96.647				
802	96.572				
803	96.488				
804	96.408				
805	96.123				
806	96.144				
807	95.997				
808	95.973				
809	96.131				
810	96.177				
811	96.094				
812	96.232				
813	96.369				
814	96.533				
815	96.697				
816	96.761				
817	96.716				
818	96.903				
819	96.838				
820	96.83				
821	96.759				
822	96.566				
823	96.382				
824	96.191				
825	96.057				
826	96.045				
827	95.977				
828	95.862				
829	95.794				
830	95.778				
831	95.722				
832	95.686				
833	95.577				
834	95.687				
835	95.748				
836	95.79				
837	95.79				
838	95.662				
839	95.625				
840	95.502				
841	95.38				
842	95.157				
843	94.976				
844	94.613				
845	94.526				
846	94.346				
847	94.081				
848	93.957				
849	93.814				
850	93.823				
851	93.92				
852	94.056				
853	94.203				
854	94.425				
855	94.847				
856	95.301				
857	95.721				
858	95.951				
859	95.995				
860	95.585				
861	94.688				
862	93.476				
863	91.542				
864	89.032				
865	86.457				
866	83.415				
867	80.889				
868	78.532				
869	76.548				
870	75.316				
871	74.727				
872	75.169				
873	76.798				
874	79.418				
875	82.837				
876	86.04				
877	87.806				
878	86.849				
879	83.038				
880	77.133				
881	71.441				
882	66.536				
883	63.176				
884	60.835				
885	59.564				
886	59.339				
887	60.632				
888	63.223				
889	64.395				
890	60.765				
891	52.201				
892	42.112				
893	35.193				
894	31.888				
895	30.116				
896	29.206				
897	28.773				
898	28.876				
899	29.612				
900	30.973				
901	32.928				
902	35.786				
903	39.013				
904	42.499				
905	45.669				
906	46.955				
907	45.966				
908	42.261				
909	36.164				
910	29.343				
911	24.052				
912	19.465				
913	16.116				
914	13.66				
915	12.174				
916	11.241				
917	11.026				
918	11.615				
919	13.346				
920	17.281				
921	24.682				
922	33.305				
923	35.638				
924	26.985				
925	14.096				
926	6.102				
927	2.729				
928	1.417				
929	0.795				
930	0.477				
931	0.307				
932	0.205				
933	0.142				
934	0.104				
935	0.071				
936	0.056				
937	0.039				
938	0.032				
939	0.022				
940	0.021				
941	0.014				
942	0.015				
943	0.011				
944	0.009				
945	0.008				
946	0.008				
947	0.004				
948	0.003				
949	0.001				
950	0.004				
951	0.003				
952	0.007				
953	0.002				
954	0.002				
955	0.001				
956	0.003				
957	0.001				
958	0.005				
959	0.002				
960	0.001				
961	0.001				
962	0.002				
963	0.003				
964	0.001				
965	0.002				
966	0.001				
967	0.002				
968	0.002				
969	0.0				
970	0.001				
971	0.002				
972	0.003				
973	0.003				
974	0.001				
975	0.001				
976	0.003				
977	0.002				
978	0.001				
979	0.002				
980	0.001				
981	0.0				
982	0.001				
983	0.001				
984	0.002				
985	0.002				
986	0.0				
987	0.001				
988	0.0				
989	0.001				
990	0.001				
991	0.0				
992	0.001				
993	0.003				
994	0.0				
995	0.002				
996	0.0				
997	0.001				
998	0.0				
999	0.001				
1000	0.0				
