Wavelength	Transmittance	hex_color	Manufacturer	Name	Filter Number
300	0.0		Chroma		ET420lp
301	0.0				
302	0.0				
303	0.0				
304	0.0				
305	0.0				
306	0.0				
307	0.0				
308	0.0				
309	0.0				
310	0.0				
311	0.0				
312	0.0				
313	0.0				
314	0.0				
315	0.0				
316	0.0				
317	0.0				
318	0.0				
319	0.0				
320	0.0				
321	0.0				
322	0.0				
323	0.0				
324	0.0				
325	0.0				
326	0.0				
327	0.0				
328	0.0				
329	0.0				
330	0.0				
331	0.0				
332	0.0				
333	0.0				
334	0.0				
335	0.0				
336	0.0				
337	0.0				
338	0.0				
339	0.0				
340	0.0				
341	0.0				
342	0.0				
343	0.0				
344	0.0				
345	0.0				
346	0.0				
347	0.0				
348	0.0				
349	0.0				
350	0.0				
351	0.0				
352	0.0				
353	0.0				
354	0.0				
355	0.0				
356	0.0				
357	0.0				
358	0.0				
359	0.0				
360	0.0				
361	0.0				
362	0.0				
363	0.0				
364	0.0				
365	0.0				
366	0.0				
367	0.0				
368	0.0				
369	0.0				
370	0.0				
371	0.0				
372	0.0				
373	0.0				
374	0.0				
375	0.0				
376	0.0				
377	0.0				
378	0.0				
379	0.0				
380	0.0				
381	0.0				
382	0.0				
383	0.0				
384	0.0				
385	0.0				
386	0.0				
387	0.0				
388	0.0				
389	0.0				
390	0.0				
391	0.0				
392	0.0				
393	0.0				
394	0.0				
395	0.0				
396	0.0				
397	0.0				
398	0.0				
399	0.0				
400	0.0				
401	0.0				
402	0.0				
403	0.0				
404	0.0				
405	0.0				
406	0.0				
407	0.0				
408	0.0				
409	0.0				
410	0.0				
411	0.0				
412	0.0				
413	0.0				
414	0.0				
415	0.001				
416	0.006				
417	0.074				
418	1.18				
419	24.296				
420	83.874				
421	94.751				
422	96.653				
423	97.82				
424	97.252				
425	96.53				
426	97.123				
427	97.986				
428	98.076				
429	97.952				
430	98.169				
431	98.525				
432	98.605				
433	98.473				
434	98.087				
435	98.103				
436	98.27				
437	98.536				
438	98.833				
439	98.875				
440	98.704				
441	98.573				
442	98.489				
443	98.475				
444	98.578				
445	98.737				
446	98.766				
447	98.74				
448	98.574				
449	98.341				
450	98.342				
451	98.322				
452	98.483				
453	98.654				
454	98.692				
455	98.777				
456	98.558				
457	98.493				
458	98.3				
459	98.248				
460	98.323				
461	98.405				
462	98.612				
463	98.734				
464	98.79				
465	98.77				
466	98.759				
467	98.532				
468	98.412				
469	98.402				
470	98.442				
471	98.579				
472	98.741				
473	98.908				
474	99.018				
475	98.947				
476	98.949				
477	98.942				
478	98.853				
479	98.855				
480	98.893				
481	98.927				
482	99.033				
483	99.011				
484	99.076				
485	98.986				
486	98.902				
487	98.817				
488	98.729				
489	98.741				
490	98.674				
491	98.812				
492	99.011				
493	99.072				
494	99.225				
495	99.168				
496	99.024				
497	98.877				
498	98.547				
499	98.378				
500	98.099				
501	97.939				
502	97.894				
503	98.035				
504	98.288				
505	98.528				
506	98.819				
507	99.008				
508	99.149				
509	99.155				
510	98.96				
511	98.642				
512	98.26				
513	97.897				
514	97.645				
515	97.387				
516	97.355				
517	97.341				
518	97.435				
519	97.546				
520	97.963				
521	98.203				
522	98.423				
523	98.555				
524	98.692				
525	98.611				
526	98.513				
527	98.347				
528	98.185				
529	98.052				
530	97.872				
531	97.815				
532	97.817				
533	97.802				
534	97.913				
535	97.95				
536	98.006				
537	98.163				
538	98.215				
539	98.2				
540	98.113				
541	98.111				
542	97.985				
543	97.94				
544	97.858				
545	97.894				
546	97.821				
547	97.873				
548	98.012				
549	98.083				
550	98.229				
551	98.334				
552	98.359				
553	98.444				
554	98.397				
555	98.339				
556	98.151				
557	98.11				
558	97.921				
559	97.704				
560	97.524				
561	97.394				
562	97.353				
563	97.311				
564	97.374				
565	97.515				
566	97.642				
567	97.883				
568	98.03				
569	98.264				
570	98.385				
571	98.536				
572	98.547				
573	98.534				
574	98.455				
575	98.356				
576	98.132				
577	98.016				
578	97.77				
579	97.629				
580	97.455				
581	97.347				
582	97.238				
583	97.23				
584	97.213				
585	97.344				
586	97.434				
587	97.554				
588	97.686				
589	97.837				
590	98.029				
591	98.095				
592	98.179				
593	98.175				
594	98.151				
595	98.101				
596	98.019				
597	97.896				
598	97.777				
599	97.585				
600	97.473				
601	97.322				
602	97.233				
603	97.221				
604	97.134				
605	97.139				
606	97.2				
607	97.247				
608	97.244				
609	97.314				
610	97.354				
611	97.425				
612	97.51				
613	97.605				
614	97.6				
615	97.58				
616	97.587				
617	97.544				
618	97.548				
619	97.497				
620	97.509				
621	97.535				
622	97.45				
623	97.413				
624	97.394				
625	97.367				
626	97.384				
627	97.446				
628	97.375				
629	97.496				
630	97.505				
631	97.457				
632	97.532				
633	97.568				
634	97.461				
635	97.48				
636	97.485				
637	97.488				
638	97.473				
639	97.435				
640	97.397				
641	97.407				
642	97.347				
643	97.374				
644	97.302				
645	97.358				
646	97.317				
647	97.358				
648	97.442				
649	97.487				
650	97.482				
651	97.551				
652	97.597				
653	97.531				
654	97.636				
655	97.571				
656	97.579				
657	97.534				
658	97.521				
659	97.466				
660	97.436				
661	97.388				
662	97.268				
663	97.274				
664	97.242				
665	97.1				
666	97.14				
667	97.066				
668	97.06				
669	97.129				
670	97.147				
671	97.205				
672	97.242				
673	97.241				
674	97.303				
675	97.425				
676	97.42				
677	97.532				
678	97.55				
679	97.683				
680	97.631				
681	97.639				
682	97.598				
683	97.497				
684	97.476				
685	97.377				
686	97.36				
687	97.267				
688	97.148				
689	97.015				
690	96.927				
691	96.833				
692	96.738				
693	96.627				
694	96.659				
695	96.573				
696	96.544				
697	96.535				
698	96.49				
699	96.637				
700	96.758				
701	96.702				
702	96.781				
703	97.001				
704	96.999				
705	97.11				
706	97.244				
707	97.388				
708	97.421				
709	97.51				
710	97.42				
711	97.471				
712	97.486				
713	97.434				
714	97.369				
715	97.237				
716	97.267				
717	96.998				
718	96.993				
719	96.791				
720	96.621				
721	96.456				
722	96.29				
723	96.338				
724	96.21				
725	96.031				
726	95.992				
727	95.971				
728	96.0				
729	95.951				
730	96.024				
731	96.133				
732	96.225				
733	96.296				
734	96.39				
735	96.576				
736	96.752				
737	96.833				
738	96.955				
739	97.017				
740	97.205				
741	97.359				
742	97.418				
743	97.347				
744	97.352				
745	97.4				
746	97.269				
747	97.301				
748	97.133				
749	96.896				
750	96.885				
751	96.594				
752	96.363				
753	96.418				
754	96.099				
755	96.028				
756	95.791				
757	95.685				
758	95.674				
759	95.407				
760	95.301				
761	95.19				
762	95.096				
763	95.221				
764	95.104				
765	95.258				
766	95.341				
767	95.366				
768	95.429				
769	95.644				
770	95.791				
771	95.777				
772	95.914				
773	96.136				
774	96.238				
775	96.492				
776	96.456				
777	96.68				
778	96.7				
779	96.826				
780	96.713				
781	96.889				
782	96.761				
783	96.603				
784	96.551				
785	96.457				
786	96.367				
787	96.165				
788	95.94				
789	95.823				
790	95.506				
791	95.393				
792	95.101				
793	94.928				
794	94.743				
795	94.468				
796	94.229				
797	94.205				
798	94.028				
799	93.808				
800	93.891				
801	93.844				
802	93.81				
803	93.886				
804	93.896				
805	93.954				
806	94.099				
807	94.15				
808	94.316				
809	94.486				
810	94.631				
811	94.846				
812	94.984				
813	95.178				
814	95.332				
815	95.495				
816	95.651				
817	95.794				
818	95.892				
819	95.965				
820	96.048				
821	96.061				
822	96.075				
823	96.033				
824	95.97				
825	95.859				
826	95.734				
827	95.57				
828	95.428				
829	95.203				
830	94.984				
831	94.727				
832	94.523				
833	94.236				
834	93.988				
835	93.732				
836	93.501				
837	93.266				
838	92.995				
839	92.809				
840	92.609				
841	92.472				
842	92.301				
843	92.188				
844	92.096				
845	92.036				
846	92.04				
847	92.018				
848	92.057				
849	92.128				
850	92.147				
851	92.294				
852	92.383				
853	92.555				
854	92.67				
855	92.849				
856	93.017				
857	93.24				
858	93.38				
859	93.557				
860	93.741				
861	93.905				
862	94.021				
863	94.18				
864	94.306				
865	94.362				
866	94.423				
867	94.451				
868	94.481				
869	94.417				
870	94.395				
871	94.301				
872	94.232				
873	94.048				
874	93.919				
875	93.727				
876	93.52				
877	93.301				
878	93.061				
879	92.797				
880	92.565				
881	92.306				
882	92.039				
883	91.761				
884	91.483				
885	91.279				
886	91.017				
887	90.814				
888	90.516				
889	90.409				
890	90.178				
891	90.083				
892	89.898				
893	89.856				
894	89.735				
895	89.685				
896	89.642				
897	89.678				
898	89.691				
899	89.704				
900	89.786				
901	89.87				
902	89.975				
903	90.057				
904	90.269				
905	90.377				
906	90.544				
907	90.672				
908	90.896				
909	90.979				
910	91.183				
911	91.324				
912	91.534				
913	91.621				
914	91.753				
915	91.875				
916	92.013				
917	92.08				
918	92.146				
919	92.178				
920	92.14				
921	92.168				
922	92.124				
923	92.08				
924	91.959				
925	91.897				
926	91.704				
927	91.638				
928	91.434				
929	91.261				
930	91.001				
931	90.84				
932	90.605				
933	90.362				
934	90.106				
935	89.886				
936	89.61				
937	89.39				
938	89.151				
939	88.892				
940	88.655				
941	88.478				
942	88.21				
943	88.069				
944	87.826				
945	87.701				
946	87.633				
947	87.359				
948	87.384				
949	87.218				
950	87.171				
951	87.153				
952	87.111				
953	87.041				
954	87.168				
955	87.13				
956	87.166				
957	87.285				
958	87.373				
959	87.369				
960	87.52				
961	87.675				
962	87.765				
963	87.857				
964	87.988				
965	88.222				
966	88.268				
967	88.451				
968	88.538				
969	88.746				
970	88.824				
971	88.943				
972	88.991				
973	89.195				
974	89.198				
975	89.319				
976	89.303				
977	89.388				
978	89.391				
979	89.407				
980	89.393				
981	89.308				
982	89.26				
983	89.198				
984	89.133				
985	88.988				
986	88.863				
987	88.73				
988	88.558				
989	88.382				
990	88.204				
991	88.023				
992	87.82				
993	87.608				
994	87.408				
995	87.165				
996	86.986				
997	86.74				
998	86.542				
999	86.325				
1000	86.089				
1001	85.887				
1002	85.708				
1003	85.524				
1004	85.314				
1005	85.187				
1006	85.022				
1007	84.913				
1008	84.705				
1009	84.643				
1010	84.497				
1011	84.449				
1012	84.34				
1013	84.33				
1014	84.266				
1015	84.272				
1016	84.217				
1017	84.265				
1018	84.273				
1019	84.333				
1020	84.396				
1021	84.438				
1022	84.525				
1023	84.582				
1024	84.664				
1025	84.742				
1026	84.896				
1027	84.976				
1028	85.178				
1029	85.277				
1030	85.425				
1031	85.479				
1032	85.631				
1033	85.663				
1034	85.895				
1035	86.022				
1036	86.156				
1037	86.219				
1038	86.249				
1039	86.38				
1040	86.52				
1041	86.594				
1042	86.62				
1043	86.599				
1044	86.649				
1045	86.745				
1046	86.696				
1047	86.648				
1048	86.578				
1049	86.667				
1050	86.543				
1051	86.456				
1052	86.318				
1053	86.309				
1054	86.175				
1055	85.978				
1056	85.845				
1057	85.815				
1058	85.518				
1059	85.311				
1060	85.27				
1061	85.1				
1062	84.784				
1063	84.666				
1064	84.568				
1065	84.15				
1066	84.058				
1067	83.909				
1068	83.54				
1069	83.416				
1070	83.364				
1071	82.9				
1072	82.949				
1073	82.766				
1074	82.378				
1075	82.534				
1076	82.161				
1077	82.001				
1078	82.122				
1079	81.646				
1080	81.871				
1081	81.521				
1082	81.503				
1083	81.584				
1084	81.213				
1085	81.573				
1086	81.087				
1087	81.501				
1088	81.032				
1089	81.384				
1090	81.171				
1091	81.322				
1092	81.363				
1093	81.331				
1094	81.514				
1095	81.318				
1096	81.744				
1097	81.42				
1098	81.946				
1099	81.617				
1100	82.17				
