Wavelength	Transmittance	hex_color	Manufacturer	Name	Filter Number
380	60.566		Chroma		ZT405/488/635rpc
381	65.757				
382	70.948				
383	75.816				
384	71.882				
385	71.203				
386	74.77				
387	73.552				
388	74.507				
389	71.557				
390	68.715				
391	63.074				
392	50.758				
393	32.311				
394	13.111				
395	2.713				
396	0.455				
397	0.163				
398	0.189				
399	0.179				
400	0.123				
401	0.115				
402	0.098				
403	0.13				
404	0.088				
405	0.165				
406	0.146				
407	0.192				
408	0.413				
409	2.37				
410	12.005				
411	28.447				
412	39.67				
413	42.758				
414	52.717				
415	71.869				
416	87.352				
417	92.763				
418	94.57				
419	95.302				
420	95.771				
421	96.224				
422	96.551				
423	96.72				
424	96.236				
425	96.153				
426	97.392				
427	97.949				
428	97.904				
429	97.806				
430	98.031				
431	98.703				
432	98.656				
433	98.722				
434	98.858				
435	98.922				
436	99.294				
437	99.122				
438	98.802				
439	98.665				
440	98.707				
441	98.6				
442	98.638				
443	98.836				
444	98.793				
445	98.653				
446	98.626				
447	98.615				
448	98.256				
449	98.023				
450	98.081				
451	98.424				
452	98.693				
453	98.279				
454	97.697				
455	97.177				
456	97.589				
457	98.169				
458	98.585				
459	98.343				
460	98.122				
461	98.186				
462	98.614				
463	98.71				
464	98.57				
465	98.303				
466	98.195				
467	98.02				
468	97.673				
469	97.087				
470	96.837				
471	96.875				
472	97.075				
473	97.452				
474	96.861				
475	87.829				
476	68.341				
477	43.713				
478	24.838				
479	12.368				
480	6.0				
481	3.316				
482	1.981				
483	1.405				
484	1.021				
485	0.809				
486	0.7				
487	0.67				
488	0.67				
489	0.731				
490	0.873				
491	1.125				
492	1.616				
493	2.723				
494	4.587				
495	9.311				
496	18.391				
497	32.613				
498	45.397				
499	51.095				
500	55.19				
501	65.042				
502	80.856				
503	93.286				
504	98.019				
505	97.677				
506	97.527				
507	98.131				
508	98.783				
509	98.964				
510	98.691				
511	98.371				
512	98.227				
513	98.478				
514	98.813				
515	99.009				
516	98.842				
517	98.404				
518	97.978				
519	97.945				
520	98.29				
521	98.745				
522	98.96				
523	99.199				
524	98.919				
525	98.505				
526	98.127				
527	97.938				
528	98.088				
529	98.506				
530	98.856				
531	99.058				
532	99.042				
533	98.799				
534	98.484				
535	98.28				
536	98.282				
537	98.449				
538	98.756				
539	99.064				
540	99.267				
541	99.332				
542	99.215				
543	99.129				
544	98.987				
545	98.98				
546	98.979				
547	99.003				
548	99.118				
549	99.127				
550	98.999				
551	98.852				
552	98.677				
553	98.786				
554	98.853				
555	98.861				
556	98.928				
557	98.75				
558	98.774				
559	98.766				
560	98.517				
561	98.727				
562	98.629				
563	98.497				
564	98.332				
565	98.209				
566	98.144				
567	98.043				
568	97.93				
569	98.008				
570	98.117				
571	98.166				
572	98.097				
573	97.962				
574	98.04				
575	98.258				
576	98.207				
577	97.974				
578	97.743				
579	97.852				
580	98.106				
581	97.975				
582	97.843				
583	98.003				
584	98.473				
585	98.32				
586	98.446				
587	98.47				
588	98.544				
589	98.554				
590	98.572				
591	98.31				
592	97.938				
593	97.594				
594	97.329				
595	97.27				
596	97.373				
597	97.733				
598	98.021				
599	98.481				
600	98.628				
601	98.586				
602	98.205				
603	97.684				
604	97.478				
605	97.474				
606	97.802				
607	98.323				
608	98.537				
609	98.192				
610	97.172				
611	95.834				
612	94.946				
613	94.969				
614	95.678				
615	94.755				
616	88.997				
617	76.351				
618	59.007				
619	41.903				
620	28.197				
621	18.749				
622	12.645				
623	8.79				
624	6.366				
625	4.7				
626	3.682				
627	2.991				
628	2.522				
629	2.21				
630	1.989				
631	1.85				
632	1.772				
633	1.751				
634	1.761				
635	1.83				
636	1.955				
637	2.145				
638	2.411				
639	2.776				
640	3.295				
641	4.009				
642	5.019				
643	6.517				
644	8.701				
645	11.672				
646	16.188				
647	21.967				
648	29.114				
649	36.918				
650	44.114				
651	49.86				
652	54.47				
653	59.619				
654	67.051				
655	77.535				
656	88.375				
657	95.171				
658	96.866				
659	96.086				
660	95.607				
661	96.019				
662	96.957				
663	97.998				
664	98.548				
665	98.387				
666	97.546				
667	96.498				
668	95.539				
669	94.918				
670	94.865				
671	95.342				
672	96.166				
673	97.144				
674	98.092				
675	98.719				
676	98.896				
677	98.681				
678	98.127				
679	97.455				
680	96.922				
681	96.579				
682	96.558				
683	96.741				
684	97.016				
685	97.515				
686	98.081				
687	98.503				
688	98.738				
689	98.775				
690	98.607				
691	98.351				
692	98.083				
693	97.79				
694	97.557				
695	97.651				
696	97.695				
697	97.905				
698	98.143				
699	98.376				
700	98.475				
701	98.653				
702	98.832				
703	98.575				
704	98.59				
705	98.358				
706	98.18				
707	97.924				
708	97.76				
709	97.669				
710	97.707				
711	97.885				
712	98.096				
713	98.158				
714	98.352				
715	98.125				
716	98.184				
717	98.079				
718	97.87				
719	97.723				
720	97.63				
721	97.506				
722	97.449				
723	97.499				
724	97.658				
725	97.789				
726	97.919				
727	98.032				
728	98.085				
729	98.047				
730	97.918				
731	97.769				
732	97.574				
733	97.394				
734	97.235				
735	97.115				
736	97.101				
737	97.154				
738	97.27				
739	97.398				
740	97.559				
741	97.666				
742	97.71				
743	97.687				
744	97.557				
745	97.32				
746	96.997				
747	96.648				
748	96.258				
749	95.986				
750	95.755				
751	95.568				
752	95.568				
753	95.727				
754	95.943				
755	96.295				
756	96.586				
757	96.857				
758	97.129				
759	97.155				
760	97.185				
761	96.996				
762	96.639				
763	96.065				
764	95.529				
765	95.002				
766	94.524				
767	94.133				
768	93.871				
769	93.824				
770	94.014				
771	94.316				
772	94.673				
773	95.24				
774	95.682				
775	96.185				
776	96.502				
777	96.308				
778	96.256				
779	95.788				
780	95.154				
781	94.4				
782	93.672				
783	92.92				
784	92.283				
785	91.842				
786	91.604				
787	91.574				
788	91.748				
789	92.128				
790	92.771				
791	93.492				
792	94.25				
793	95.02				
794	95.631				
795	96.066				
796	96.223				
797	96.077				
798	95.617				
799	94.87				
800	93.966				
