Wavelength	Transmittance	hex_color	Manufacturer	Name	Filter Number
380	1.448		Chroma		T510lpxrxt
381	1.197				
382	0.876				
383	0.641				
384	0.524				
385	0.526				
386	0.611				
387	0.651				
388	0.384				
389	0.592				
390	0.919				
391	1.726				
392	2.547				
393	1.941				
394	0.909				
395	0.614				
396	0.512				
397	0.465				
398	0.622				
399	0.871				
400	1.405				
401	1.98				
402	1.531				
403	0.843				
404	0.507				
405	0.394				
406	0.372				
407	0.386				
408	0.374				
409	0.573				
410	0.92				
411	1.322				
412	1.201				
413	0.744				
414	0.425				
415	0.364				
416	0.312				
417	0.273				
418	0.266				
419	0.31				
420	0.424				
421	0.711				
422	0.949				
423	0.908				
424	0.578				
425	0.39				
426	0.258				
427	0.211				
428	0.193				
429	0.227				
430	0.221				
431	0.315				
432	0.46				
433	0.703				
434	0.997				
435	0.996				
436	0.693				
437	0.423				
438	0.285				
439	0.234				
440	0.2				
441	0.174				
442	0.213				
443	0.255				
444	0.371				
445	0.537				
446	0.877				
447	1.445				
448	1.507				
449	0.939				
450	0.519				
451	0.324				
452	0.248				
453	0.204				
454	0.22				
455	0.296				
456	0.315				
457	0.3				
458	0.454				
459	1.109				
460	2.423				
461	2.587				
462	1.142				
463	0.395				
464	0.18				
465	0.126				
466	0.1				
467	0.086				
468	0.08				
469	0.064				
470	0.064				
471	0.061				
472	0.071				
473	0.06				
474	0.068				
475	0.056				
476	0.062				
477	0.071				
478	0.066				
479	0.075				
480	0.062				
481	0.094				
482	0.089				
483	0.089				
484	0.101				
485	0.119				
486	0.133				
487	0.177				
488	0.209				
489	0.277				
490	0.353				
491	0.466				
492	0.626				
493	0.814				
494	1.071				
495	1.381				
496	1.766				
497	2.225				
498	2.788				
499	3.501				
500	4.379				
501	5.567				
502	7.096				
503	9.357				
504	12.358				
505	16.199				
506	21.68				
507	27.595				
508	34.587				
509	41.453				
510	46.889				
511	52.357				
512	58.499				
513	66.546				
514	77.873				
515	88.368				
516	95.331				
517	97.889				
518	98.187				
519	98.017				
520	98.098				
521	98.446				
522	98.718				
523	98.9				
524	98.912				
525	98.792				
526	98.629				
527	98.451				
528	98.365				
529	98.304				
530	98.45				
531	98.548				
532	98.72				
533	98.747				
534	99.029				
535	99.002				
536	98.882				
537	98.612				
538	98.562				
539	98.542				
540	98.462				
541	98.364				
542	98.392				
543	98.462				
544	98.512				
545	98.456				
546	98.526				
547	98.482				
548	98.432				
549	98.308				
550	98.215				
551	98.124				
552	98.079				
553	97.965				
554	97.881				
555	97.875				
556	97.883				
557	97.926				
558	97.878				
559	97.971				
560	98.135				
561	98.17				
562	98.194				
563	98.15				
564	98.13				
565	98.022				
566	98.005				
567	97.864				
568	97.792				
569	97.644				
570	97.64				
571	97.68				
572	97.694				
573	97.743				
574	97.904				
575	98.081				
576	98.078				
577	98.24				
578	98.305				
579	98.389				
580	98.45				
581	98.448				
582	98.395				
583	98.372				
584	98.339				
585	98.234				
586	98.244				
587	98.167				
588	98.082				
589	98.103				
590	98.111				
591	98.171				
592	98.185				
593	98.176				
594	98.092				
595	98.136				
596	98.16				
597	97.993				
598	97.849				
599	97.651				
600	97.469				
601	97.429				
602	97.053				
603	96.712				
604	96.682				
605	96.431				
606	96.267				
607	96.14				
608	95.933				
609	95.976				
610	96.154				
611	96.203				
612	96.311				
613	96.498				
614	96.777				
615	97.044				
616	97.413				
617	97.653				
618	97.861				
619	98.04				
620	98.161				
621	98.29				
622	98.347				
623	98.327				
624	98.243				
625	98.093				
626	97.94				
627	97.767				
628	97.515				
629	97.174				
630	96.909				
631	96.665				
632	96.491				
633	96.314				
634	96.258				
635	96.216				
636	96.215				
637	96.308				
638	96.437				
639	96.592				
640	96.801				
641	96.985				
642	97.173				
643	97.448				
644	97.59				
645	97.789				
646	97.983				
647	98.277				
648	98.419				
649	98.474				
650	98.519				
651	98.578				
652	98.562				
653	98.595				
654	98.571				
655	98.547				
656	98.498				
657	98.39				
658	98.34				
659	98.317				
660	98.271				
661	98.235				
662	98.171				
663	98.166				
664	98.161				
665	98.166				
666	98.196				
667	98.292				
668	98.301				
669	98.323				
670	98.353				
671	98.403				
672	98.483				
673	98.548				
674	98.646				
675	98.687				
676	98.779				
677	98.769				
678	98.825				
679	98.591				
680	98.708				
681	98.797				
682	98.685				
683	98.641				
684	98.624				
685	98.51				
686	98.433				
687	98.413				
688	98.367				
689	98.268				
690	98.265				
691	98.258				
692	98.17				
693	98.17				
694	98.142				
695	98.089				
696	98.068				
697	98.173				
698	98.2				
699	98.14				
700	98.287				
701	98.103				
702	98.178				
703	98.142				
704	98.252				
705	98.302				
706	98.272				
707	98.306				
708	98.311				
709	98.315				
710	98.412				
711	98.28				
712	98.305				
713	98.23				
714	98.214				
715	98.213				
716	98.261				
717	98.178				
718	98.15				
719	98.215				
720	98.127				
721	98.033				
722	97.983				
723	97.946				
724	97.791				
725	97.726				
726	97.709				
727	97.727				
728	97.684				
729	97.559				
730	97.52				
731	97.601				
732	97.637				
733	97.664				
734	97.6				
735	97.585				
736	97.638				
737	97.636				
738	97.715				
739	97.778				
740	97.832				
741	97.906				
742	97.949				
743	98.073				
744	98.123				
745	98.168				
746	98.156				
747	98.181				
748	98.158				
749	98.234				
750	98.255				
751	98.209				
752	98.175				
753	98.126				
754	98.096				
755	97.997				
756	97.943				
757	97.93				
758	97.868				
759	97.862				
760	97.741				
761	97.704				
762	97.674				
763	97.675				
764	97.644				
765	97.654				
766	97.752				
767	97.752				
768	97.682				
769	97.634				
770	97.752				
771	97.823				
772	97.916				
773	97.992				
774	98.124				
775	98.243				
776	98.242				
777	98.373				
778	98.351				
779	98.367				
780	98.436				
781	98.359				
782	98.23				
783	98.229				
784	98.167				
785	97.981				
786	97.867				
787	97.78				
788	97.62				
789	97.432				
790	97.254				
791	97.05				
792	96.8				
793	96.638				
794	96.344				
795	96.117				
796	95.874				
797	95.549				
798	95.299				
799	95.044				
800	94.838				
801	94.543				
802	94.394				
803	94.204				
804	94.092				
805	93.97				
806	93.91				
807	93.808				
808	93.828				
809	93.864				
810	93.919				
811	94.004				
812	94.061				
813	94.141				
814	94.311				
815	94.478				
816	94.73				
817	94.923				
818	95.168				
819	95.473				
820	95.727				
821	95.888				
822	96.171				
823	96.478				
824	96.672				
825	96.813				
826	97.062				
827	97.22				
828	97.256				
829	97.31				
830	97.389				
831	97.445				
832	97.475				
833	97.439				
834	97.248				
835	97.168				
836	97.039				
837	96.842				
838	96.504				
839	96.32				
840	96.077				
841	95.786				
842	95.476				
843	95.207				
844	94.897				
845	94.554				
846	94.293				
847	94.065				
848	93.836				
849	93.519				
850	93.307				
851	93.152				
852	93.016				
853	92.897				
854	92.824				
855	92.717				
856	92.775				
857	92.7				
858	92.831				
859	92.968				
860	93.026				
861	93.145				
862	93.337				
863	93.533				
864	93.77				
865	94.025				
866	94.291				
867	94.594				
868	94.927				
869	95.197				
870	95.397				
871	95.743				
872	95.976				
873	96.198				
874	96.395				
875	96.758				
876	96.844				
877	97.032				
878	97.257				
879	97.274				
880	97.703				
881	97.749				
882	97.78				
883	97.91				
884	97.95				
885	98.001				
886	97.909				
887	97.796				
888	97.706				
889	97.614				
890	97.515				
891	97.43				
892	97.172				
893	96.984				
894	96.835				
895	96.653				
896	96.405				
897	96.257				
898	96.015				
899	95.85				
900	95.73				
901	95.597				
902	95.547				
903	95.384				
904	95.237				
905	95.305				
906	95.209				
907	95.062				
908	95.053				
909	95.164				
910	95.117				
911	95.292				
912	95.355				
913	95.36				
914	95.537				
915	95.677				
916	95.602				
917	95.822				
918	95.914				
919	96.065				
920	96.418				
921	96.515				
922	96.706				
923	96.832				
924	96.888				
925	96.948				
926	97.001				
927	97.017				
928	97.117				
929	97.141				
930	97.213				
931	97.017				
932	96.983				
933	97.045				
934	96.82				
935	96.67				
936	96.506				
937	96.374				
938	96.113				
939	95.736				
940	95.485				
941	95.224				
942	94.866				
943	94.471				
944	94.139				
945	93.739				
946	93.359				
947	92.957				
948	92.562				
949	92.194				
950	91.782				
951	91.42				
952	91.086				
953	90.72				
954	90.357				
955	90.027				
956	89.681				
957	89.365				
958	89.024				
959	88.795				
960	88.573				
961	88.301				
962	88.153				
963	87.954				
964	87.702				
965	87.571				
966	87.541				
967	87.436				
968	87.345				
969	87.29				
970	87.209				
971	87.133				
972	87.133				
973	87.203				
974	87.217				
975	87.197				
976	87.213				
977	87.224				
978	87.34				
979	87.357				
980	87.484				
981	87.531				
982	87.694				
983	87.679				
984	87.749				
985	87.852				
986	87.986				
987	88.062				
988	88.205				
989	88.309				
990	88.398				
991	88.478				
992	88.528				
993	88.518				
994	88.602				
995	88.628				
996	88.645				
997	88.623				
998	88.517				
999	88.435				
1000	88.476				
1001	88.495				
1002	88.467				
1003	88.437				
1004	88.437				
1005	88.378				
1006	88.355				
1007	88.326				
1008	88.257				
1009	88.208				
1010	88.204				
1011	88.163				
1012	88.117				
1013	88.009				
1014	87.921				
1015	87.895				
1016	87.778				
1017	87.674				
1018	87.602				
1019	87.564				
1020	87.535				
1021	87.513				
1022	87.424				
1023	87.313				
1024	87.222				
1025	87.05				
1026	86.991				
1027	86.91				
1028	86.914				
1029	86.81				
1030	86.63				
1031	86.506				
1032	86.604				
1033	86.45				
1034	86.368				
1035	86.301				
1036	86.243				
1037	86.096				
1038	85.891				
1039	85.791				
1040	85.641				
1041	85.594				
1042	85.481				
1043	85.248				
1044	85.084				
1045	84.92				
1046	84.8				
1047	84.643				
1048	84.53				
1049	84.394				
1050	84.235				
1051	84.121				
1052	83.899				
1053	83.756				
1054	83.659				
1055	83.517				
1056	83.415				
1057	83.331				
1058	83.296				
1059	83.301				
1060	83.321				
1061	83.224				
1062	83.218				
1063	83.178				
1064	83.119				
1065	83.125				
1066	83.123				
1067	83.243				
1068	83.284				
1069	83.433				
1070	83.657				
1071	83.797				
1072	83.845				
1073	84.068				
1074	84.285				
1075	84.508				
1076	84.803				
1077	85.189				
1078	85.47				
1079	85.726				
1080	86.019				
1081	86.427				
1082	86.833				
1083	87.222				
1084	87.623				
1085	88.015				
1086	88.452				
1087	88.902				
1088	89.223				
1089	89.694				
1090	90.129				
1091	90.466				
1092	90.805				
1093	91.163				
1094	91.502				
1095	91.808				
1096	92.175				
1097	92.345				
1098	92.537				
1099	92.693				
1100	92.563				
