Wavelength	Transmittance	hex_color	Manufacturer	Name	Filter Number
400	0.0		Chroma		zet685nf0
401	0.0				
402	0.0				
403	0.0				
404	0.0				
405	0.0				
406	0.0				
407	0.0				
408	0.0				
409	0.0				
410	0.0				
411	0.0				
412	0.0				
413	0.0				
414	0.0				
415	0.001				
416	0.005				
417	0.043				
418	0.169				
419	0.544				
420	0.819				
421	1.955				
422	9.764				
423	46.333				
424	87.73				
425	88.405				
426	79.835				
427	72.461				
428	67.243				
429	78.588				
430	86.828				
431	92.413				
432	91.912				
433	95.554				
434	96.441				
435	96.134				
436	97.264				
437	97.352				
438	96.717				
439	97.083				
440	97.61				
441	97.246				
442	96.642				
443	96.973				
444	94.911				
445	96.153				
446	96.651				
447	96.921				
448	96.506				
449	96.831				
450	96.948				
451	96.251				
452	94.302				
453	96.878				
454	97.118				
455	97.659				
456	98.018				
457	97.75				
458	97.737				
459	97.465				
460	97.464				
461	97.675				
462	97.974				
463	97.94				
464	97.741				
465	97.389				
466	96.819				
467	97.615				
468	97.682				
469	97.716				
470	97.504				
471	96.48				
472	97.698				
473	96.825				
474	97.024				
475	97.596				
476	96.536				
477	97.681				
478	97.056				
479	96.635				
480	97.494				
481	97.085				
482	97.355				
483	97.645				
484	97.581				
485	97.985				
486	97.298				
487	97.125				
488	97.761				
489	97.611				
490	97.16				
491	97.929				
492	97.928				
493	97.507				
494	97.977				
495	97.073				
496	96.541				
497	97.353				
498	97.339				
499	96.932				
500	97.87				
501	97.737				
502	97.544				
503	97.784				
504	97.214				
505	96.828				
506	97.418				
507	97.024				
508	96.254				
509	97.218				
510	97.737				
511	97.168				
512	97.291				
513	97.795				
514	97.136				
515	97.02				
516	97.249				
517	97.403				
518	97.417				
519	97.506				
520	97.56				
521	97.522				
522	98.01				
523	97.896				
524	97.388				
525	97.088				
526	97.687				
527	97.672				
528	97.656				
529	97.908				
530	97.887				
531	97.306				
532	96.84				
533	96.894				
534	97.437				
535	97.705				
536	97.835				
537	97.926				
538	97.706				
539	97.882				
540	98.113				
541	97.856				
542	97.489				
543	97.751				
544	97.834				
545	98.0				
546	98.037				
547	97.887				
548	97.76				
549	97.896				
550	98.246				
551	98.205				
552	98.25				
553	98.199				
554	98.143				
555	98.254				
556	98.146				
557	98.288				
558	98.411				
559	98.379				
560	98.342				
561	98.238				
562	98.302				
563	98.036				
564	98.254				
565	98.709				
566	98.621				
567	98.707				
568	98.692				
569	98.563				
570	98.746				
571	98.6				
572	98.657				
573	98.448				
574	98.249				
575	98.336				
576	98.487				
577	98.76				
578	98.655				
579	98.657				
580	98.668				
581	98.823				
582	98.891				
583	98.829				
584	98.795				
585	98.938				
586	98.809				
587	98.737				
588	98.757				
589	98.922				
590	98.932				
591	98.827				
592	98.637				
593	98.869				
594	99.027				
595	98.756				
596	98.616				
597	98.922				
598	99.23				
599	98.839				
600	98.451				
601	98.68				
602	99.032				
603	99.012				
604	98.796				
605	98.756				
606	98.85				
607	99.26				
608	99.103				
609	99.113				
610	99.102				
611	99.273				
612	99.177				
613	98.873				
614	98.687				
615	98.927				
616	99.055				
617	99.049				
618	98.949				
619	98.976				
620	99.121				
621	99.139				
622	99.078				
623	99.199				
624	99.35				
625	99.033				
626	99.13				
627	99.134				
628	99.107				
629	99.074				
630	99.023				
631	98.848				
632	98.823				
633	99.097				
634	98.971				
635	98.955				
636	98.923				
637	99.074				
638	99.074				
639	99.049				
640	99.102				
641	98.908				
642	98.901				
643	98.787				
644	98.08				
645	97.92				
646	98.145				
647	98.713				
648	98.698				
649	98.427				
650	98.17				
651	98.428				
652	98.602				
653	98.844				
654	98.554				
655	98.627				
656	98.728				
657	98.605				
658	98.107				
659	98.276				
660	98.562				
661	98.569				
662	98.101				
663	97.69				
664	97.158				
665	95.76				
666	40.509				
667	3.698				
668	1.833				
669	0.361				
670	0.093				
671	0.03				
672	0.011				
673	0.005				
674	0.002				
675	0.001				
676	0.001				
677	0.0				
678	0.0				
679	0.0				
680	0.0				
681	0.0				
682	0.0				
683	0.0				
684	0.0				
685	0.0				
686	0.0				
687	0.0				
688	0.0				
689	0.0				
690	0.0				
691	0.0				
692	0.001				
693	0.001				
694	0.002				
695	0.004				
696	0.009				
697	0.022				
698	0.061				
699	0.208				
700	0.878				
701	5.474				
702	37.227				
703	89.248				
704	93.395				
705	96.083				
706	97.675				
707	96.029				
708	96.619				
709	98.232				
710	98.533				
711	97.09				
712	96.948				
713	97.603				
714	98.644				
715	98.502				
716	98.221				
717	98.052				
718	98.341				
719	98.649				
720	98.389				
721	97.798				
722	97.631				
723	97.668				
724	98.451				
725	98.729				
726	98.524				
727	97.989				
728	97.861				
729	97.81				
730	98.375				
731	98.568				
732	98.513				
733	98.093				
734	97.945				
735	97.94				
736	98.183				
737	98.853				
738	98.539				
739	98.411				
740	97.913				
741	97.761				
742	97.778				
743	98.307				
744	98.644				
745	98.608				
746	98.501				
747	98.143				
748	97.99				
749	98.007				
750	98.496				
751	98.737				
752	98.596				
753	98.295				
754	98.454				
755	98.684				
756	98.432				
757	98.797				
758	98.625				
759	98.731				
760	98.51				
761	98.165				
762	98.289				
763	98.542				
764	98.861				
765	98.849				
766	98.677				
767	98.053				
768	98.223				
769	97.968				
770	98.159				
771	98.361				
772	98.68				
773	99.082				
774	98.514				
775	98.413				
776	98.106				
777	97.95				
778	98.382				
779	98.633				
780	98.883				
781	99.131				
782	99.433				
783	98.898				
784	98.482				
785	98.742				
786	98.606				
787	98.944				
788	99.08				
789	99.041				
790	98.283				
791	98.159				
792	97.787				
793	98.096				
794	98.387				
795	99.01				
796	98.82				
797	99.089				
798	99.068				
799	99.21				
800	98.77				
801	98.531				
802	98.474				
803	98.367				
804	99.071				
805	98.986				
806	99.213				
807	99.116				
808	99.023				
809	98.733				
810	99.046				
811	99.784				
812	98.714				
813	98.643				
814	98.185				
815	98.396				
816	98.08				
817	98.308				
818	98.703				
819	98.977				
820	98.992				
821	98.377				
822	97.234				
823	95.718				
824	95.12				
825	94.466				
826	95.127				
827	96.232				
828	97.82				
829	98.983				
830	99.219				
831	98.526				
832	97.476				
833	96.163				
834	94.093				
835	94.107				
836	93.53				
837	95.407				
838	97.121				
839	97.199				
840	99.713				
841	98.715				
842	98.301				
843	96.055				
844	94.808				
845	95.082				
846	95.607				
847	97.031				
848	98.672				
849	98.227				
850	98.552				
851	97.892				
852	96.656				
853	95.322				
854	94.68				
855	95.95				
856	95.625				
857	96.514				
858	97.924				
859	98.653				
860	97.231				
861	95.077				
862	95.1				
863	92.629				
864	92.885				
865	93.017				
866	94.5				
867	95.012				
868	97.154				
869	97.634				
870	97.653				
871	96.718				
872	94.926				
873	94.069				
874	92.101				
875	92.485				
876	93.305				
877	93.595				
878	95.206				
879	96.947				
880	97.113				
881	96.401				
882	93.883				
883	92.474				
884	90.544				
885	90.078				
886	88.935				
887	91.231				
888	92.818				
889	94.263				
890	93.791				
891	93.706				
892	93.166				
893	90.659				
894	88.705				
895	86.582				
896	87.752				
897	87.731				
898	88.674				
899	89.952				
900	92.403				
