Wavelength	Transmittance	hex_color	Manufacturer	Name	Filter Number
300	0.0		Chroma		zet532nf0
301	0.0				
302	0.0				
303	0.0				
304	0.0				
305	0.0				
306	0.0				
307	0.0				
308	0.0				
309	0.0				
310	0.0				
311	0.0				
312	0.0				
313	0.0				
314	0.0				
315	0.0				
316	0.0				
317	0.0				
318	0.0				
319	0.0				
320	0.0				
321	0.0				
322	0.0				
323	0.0				
324	0.0				
325	0.0				
326	0.0				
327	0.0				
328	0.0				
329	0.0				
330	0.0				
331	0.0				
332	0.0				
333	0.0				
334	0.0				
335	0.0				
336	0.0				
337	0.0				
338	0.0				
339	0.0				
340	0.0				
341	0.0				
342	0.0				
343	0.0				
344	0.0				
345	0.0				
346	0.0				
347	0.0				
348	0.0				
349	0.0				
350	0.0				
351	0.0				
352	0.0				
353	0.0				
354	0.0				
355	0.0				
356	0.0				
357	0.0				
358	0.0				
359	0.0				
360	0.0				
361	0.0				
362	0.0				
363	0.0				
364	0.0				
365	0.0				
366	0.001				
367	0.002				
368	0.005				
369	0.009				
370	0.016				
371	0.025				
372	0.035				
373	0.051				
374	0.094				
375	0.219				
376	0.519				
377	1.202				
378	2.359				
379	4.142				
380	6.989				
381	11.842				
382	16.753				
383	22.212				
384	34.681				
385	51.039				
386	57.926				
387	57.759				
388	56.087				
389	67.067				
390	71.495				
391	78.894				
392	80.452				
393	81.531				
394	82.854				
395	86.901				
396	88.459				
397	90.197				
398	91.468				
399	91.635				
400	93.124				
401	92.835				
402	94.059				
403	94.022				
404	94.516				
405	94.868				
406	94.929				
407	94.966				
408	95.384				
409	95.541				
410	96.476				
411	96.334				
412	96.465				
413	96.704				
414	96.729				
415	97.122				
416	97.216				
417	96.764				
418	96.449				
419	96.388				
420	96.762				
421	97.152				
422	96.838				
423	96.131				
424	96.59				
425	97.227				
426	97.496				
427	97.589				
428	97.147				
429	97.089				
430	97.385				
431	97.33				
432	97.399				
433	97.136				
434	97.375				
435	96.972				
436	96.751				
437	97.291				
438	97.298				
439	97.301				
440	97.547				
441	97.301				
442	97.193				
443	97.177				
444	97.232				
445	97.5				
446	97.29				
447	97.291				
448	97.318				
449	96.79				
450	96.998				
451	97.29				
452	97.092				
453	97.363				
454	97.153				
455	96.865				
456	97.201				
457	96.64				
458	96.483				
459	97.034				
460	96.888				
461	97.064				
462	97.239				
463	97.255				
464	97.241				
465	97.292				
466	97.062				
467	97.432				
468	97.177				
469	97.256				
470	97.372				
471	97.184				
472	97.083				
473	97.427				
474	97.595				
475	97.741				
476	97.518				
477	97.455				
478	97.365				
479	97.421				
480	97.09				
481	97.44				
482	97.528				
483	97.467				
484	97.598				
485	97.509				
486	97.417				
487	97.762				
488	97.475				
489	97.42				
490	97.492				
491	97.61				
492	97.524				
493	97.157				
494	96.433				
495	97.06				
496	97.464				
497	96.369				
498	96.211				
499	97.22				
500	97.346				
501	96.624				
502	97.234				
503	97.427				
504	96.814				
505	96.997				
506	97.552				
507	96.851				
508	97.165				
509	97.694				
510	97.442				
511	97.376				
512	97.459				
513	97.198				
514	97.49				
515	97.395				
516	96.33				
517	97.221				
518	97.316				
519	96.935				
520	93.559				
521	33.924				
522	3.382				
523	0.228				
524	0.027				
525	0.005				
526	0.002				
527	0.001				
528	0.0				
529	0.0				
530	0.0				
531	0.0				
532	0.0				
533	0.0				
534	0.0				
535	0.0				
536	0.0				
537	0.0				
538	0.0				
539	0.0				
540	0.001				
541	0.002				
542	0.009				
543	0.042				
544	0.316				
545	4.544				
546	44.947				
547	93.319				
548	97.43				
549	96.565				
550	97.3				
551	96.928				
552	95.875				
553	97.039				
554	97.665				
555	97.133				
556	97.286				
557	97.876				
558	97.424				
559	97.403				
560	97.856				
561	98.018				
562	97.567				
563	97.656				
564	98.233				
565	98.217				
566	97.921				
567	97.728				
568	97.886				
569	98.073				
570	97.739				
571	97.767				
572	98.04				
573	98.143				
574	97.514				
575	97.222				
576	98.036				
577	98.123				
578	98.245				
579	97.628				
580	97.567				
581	97.908				
582	98.204				
583	97.864				
584	97.334				
585	97.19				
586	97.689				
587	98.213				
588	98.249				
589	97.614				
590	97.723				
591	97.816				
592	98.256				
593	98.103				
594	97.742				
595	97.773				
596	97.998				
597	98.078				
598	98.008				
599	97.771				
600	97.832				
601	97.927				
602	98.327				
603	98.398				
604	97.874				
605	97.867				
606	98.138				
607	98.253				
608	98.491				
609	98.207				
610	98.15				
611	98.213				
612	98.388				
613	98.571				
614	98.529				
615	98.149				
616	98.224				
617	98.37				
618	98.349				
619	98.603				
620	98.417				
621	98.359				
622	98.403				
623	98.441				
624	98.63				
625	98.458				
626	98.652				
627	98.63				
628	98.754				
629	98.616				
630	98.84				
631	98.763				
632	98.61				
633	98.753				
634	98.802				
635	98.742				
636	98.653				
637	98.644				
638	98.824				
639	98.815				
640	98.919				
641	98.746				
642	98.472				
643	98.631				
644	98.659				
645	98.944				
646	99.062				
647	98.872				
648	98.563				
649	98.456				
650	98.704				
651	98.984				
652	98.882				
653	98.852				
654	98.307				
655	97.852				
656	97.881				
657	98.369				
658	98.849				
659	98.953				
660	98.701				
661	97.981				
662	97.399				
663	97.528				
664	98.118				
665	98.663				
666	99.07				
667	98.849				
668	98.432				
669	97.717				
670	97.77				
671	98.253				
672	98.942				
673	99.088				
674	99.065				
675	98.605				
676	98.269				
677	98.098				
678	98.121				
679	98.777				
680	98.974				
681	98.934				
682	98.416				
683	98.098				
684	98.258				
685	98.43				
686	98.713				
687	98.834				
688	98.929				
689	98.743				
690	98.312				
691	98.571				
692	98.754				
693	98.99				
694	99.216				
695	99.221				
696	98.855				
697	98.3				
698	98.479				
699	98.608				
700	98.874				
701	99.225				
702	99.349				
703	99.11				
704	98.88				
705	98.403				
706	98.195				
707	98.261				
708	98.649				
709	99.093				
710	99.448				
711	99.287				
712	98.962				
713	98.712				
714	98.65				
715	98.526				
716	98.978				
717	99.085				
718	99.428				
719	98.879				
720	98.745				
721	98.698				
722	98.642				
723	98.852				
724	99.014				
725	98.997				
726	99.028				
727	99.044				
728	98.809				
729	98.746				
730	99.063				
731	99.094				
732	99.12				
733	99.145				
734	99.464				
735	99.187				
736	98.901				
737	98.874				
738	98.993				
739	99.117				
740	99.236				
741	99.496				
742	99.369				
743	99.617				
744	99.045				
745	98.97				
746	98.683				
747	98.461				
748	98.352				
749	98.751				
750	99.378				
751	98.914				
752	99.27				
753	99.243				
754	98.957				
755	98.396				
756	98.242				
757	98.184				
758	98.557				
759	98.809				
760	99.211				
761	99.326				
762	98.993				
763	98.912				
764	98.659				
765	98.613				
766	97.926				
767	97.729				
768	98.28				
769	98.67				
770	98.707				
771	99.059				
772	98.839				
773	98.745				
774	98.629				
775	98.666				
776	98.57				
777	98.5				
778	98.662				
779	98.784				
780	98.703				
781	98.673				
782	98.601				
783	97.586				
784	97.287				
785	97.879				
786	97.738				
787	97.983				
788	98.651				
789	98.803				
790	98.41				
791	98.166				
792	98.182				
793	97.572				
794	97.263				
795	97.429				
796	98.038				
797	97.999				
798	98.164				
799	97.647				
800	96.689				
801	94.992				
802	93.752				
803	92.462				
804	91.69				
805	91.542				
806	91.976				
807	93.051				
808	93.342				
809	93.25				
810	92.062				
811	89.162				
812	86.368				
813	83.832				
814	82.217				
815	81.713				
816	81.963				
817	83.38				
818	84.414				
819	85.934				
820	85.241				
821	82.897				
822	79.029				
823	75.26				
824	72.231				
825	70.032				
826	69.692				
827	71.858				
828	74.504				
829	78.488				
830	82.502				
831	83.142				
832	81.732				
833	77.769				
834	71.518				
835	65.601				
836	61.814				
837	59.932				
838	60.074				
839	62.806				
840	68.351				
841	74.67				
842	81.145				
843	84.759				
844	82.276				
845	76.108				
846	67.651				
847	60.217				
848	55.504				
849	52.124				
850	51.871				
851	54.596				
852	59.713				
853	67.375				
854	77.146				
855	83.805				
856	83.982				
857	77.431				
858	66.738				
859	57.254				
860	50.297				
861	46.085				
862	44.884				
863	46.067				
864	50.361				
865	57.439				
866	67.87				
867	78.683				
868	85.67				
869	84.075				
870	73.948				
871	61.736				
872	51.572				
873	44.919				
874	41.642				
875	40.616				
876	42.199				
877	46.488				
878	54.071				
879	65.905				
880	77.867				
881	87.052				
882	85.926				
883	75.343				
884	62.008				
885	51.18				
886	43.997				
887	39.787				
888	38.16				
889	39.156				
890	43.195				
891	49.615				
892	59.68				
893	72.458				
894	83.914				
895	86.013				
896	79.081				
897	65.617				
898	53.452				
899	45.088				
900	39.566				
901	36.864				
902	36.595				
903	38.985				
904	44.148				
905	52.455				
906	63.503				
907	76.368				
908	84.327				
909	82.239				
910	70.739				
911	57.64				
912	47.297				
913	40.268				
914	36.25				
915	34.415				
916	34.753				
917	37.584				
918	43.542				
919	51.871				
920	64.138				
921	77.375				
922	85.309				
923	80.733				
924	68.097				
925	54.354				
926	43.891				
927	36.821				
928	32.726				
929	30.613				
930	30.591				
931	32.678				
932	36.887				
933	43.941				
934	54.942				
935	69.183				
936	81.735				
937	84.453				
938	74.32				
939	59.242				
940	46.567				
941	37.156				
942	31.35				
943	27.854				
944	26.639				
945	26.938				
946	28.68				
947	32.622				
948	39.22				
949	48.889				
950	63.235				
951	77.649				
952	83.388				
953	76.382				
954	62.068				
955	48.362				
956	38.216				
957	32.037				
958	27.847				
959	25.765				
960	25.45				
961	26.275				
962	28.857				
963	33.637				
964	40.987				
965	52.463				
966	63.87				
967	77.436				
968	81.283				
969	72.879				
970	59.827				
971	47.465				
972	37.931				
973	32.032				
974	28.187				
975	26.531				
976	26.171				
977	27.167				
978	29.623				
979	33.777				
980	40.85				
981	51.843				
982	62.884				
983	74.398				
984	79.258				
985	75.302				
986	63.159				
987	49.992				
988	40.385				
989	34.24				
990	29.97				
991	28.008				
992	27.013				
993	27.545				
994	29.326				
995	32.804				
996	38.103				
997	45.167				
998	56.053				
999	67.213				
1000	77.115				
