Wavelength	Transmittance	hex_color	Manufacturer	Name	Filter Number
350	0.009		Chroma		T412lpxt
351	0.063				
352	0.144				
353	0.277				
354	0.392				
355	0.465				
356	0.464				
357	0.424				
358	0.379				
359	0.378				
360	0.412				
361	0.418				
362	0.366				
363	0.306				
364	0.293				
365	0.336				
366	0.322				
367	0.295				
368	0.297				
369	0.304				
370	0.317				
371	0.297				
372	0.288				
373	0.301				
374	0.251				
375	0.194				
376	0.16				
377	0.12				
378	0.168				
379	0.23				
380	0.155				
381	0.037				
382	0.003				
383	0.0				
384	0.0				
385	0.024				
386	0.104				
387	0.098				
388	0.433				
389	0.5				
390	0.55				
391	0.516				
392	0.431				
393	0.378				
394	0.459				
395	0.602				
396	0.662				
397	0.609				
398	0.431				
399	0.268				
400	0.23				
401	0.204				
402	0.196				
403	0.214				
404	0.255				
405	0.35				
406	0.616				
407	2.441				
408	11.037				
409	26.789				
410	41.165				
411	52.966				
412	69.172				
413	86.2				
414	94.616				
415	95.981				
416	96.152				
417	96.241				
418	96.429				
419	96.688				
420	96.874				
421	97.124				
422	97.461				
423	97.659				
424	97.575				
425	97.551				
426	97.445				
427	97.183				
428	97.081				
429	97.101				
430	97.123				
431	97.135				
432	97.349				
433	97.438				
434	97.041				
435	96.65				
436	96.979				
437	97.708				
438	97.841				
439	97.457				
440	96.99				
441	97.035				
442	97.608				
443	97.879				
444	97.607				
445	97.087				
446	96.878				
447	97.256				
448	97.517				
449	97.341				
450	96.885				
451	96.721				
452	97.124				
453	97.621				
454	97.623				
455	97.478				
456	97.583				
457	98.023				
458	98.179				
459	97.814				
460	97.328				
461	97.388				
462	97.848				
463	97.966				
464	97.409				
465	96.798				
466	96.744				
467	97.315				
468	97.901				
469	97.888				
470	97.199				
471	96.609				
472	96.556				
473	97.098				
474	97.627				
475	97.745				
476	97.505				
477	97.403				
478	97.701				
479	98.064				
480	98.046				
481	97.465				
482	96.74				
483	96.569				
484	97.041				
485	97.709				
486	97.999				
487	97.468				
488	96.648				
489	96.003				
490	95.935				
491	96.585				
492	97.451				
493	97.904				
494	97.784				
495	97.371				
496	97.038				
497	97.176				
498	97.618				
499	97.968				
500	98.007				
501	97.679				
502	97.284				
503	97.039				
504	97.141				
505	97.43				
506	97.716				
507	97.729				
508	97.379				
509	96.963				
510	96.717				
511	96.896				
512	97.427				
513	98.027				
514	98.389				
515	98.339				
516	97.859				
517	97.25				
518	96.919				
519	96.955				
520	97.329				
521	97.781				
522	98.088				
523	98.12				
524	97.967				
525	97.77				
526	97.609				
527	97.61				
528	97.725				
529	97.81				
530	97.789				
531	97.676				
532	97.49				
533	97.339				
534	97.318				
535	97.383				
536	97.434				
537	97.433				
538	97.387				
539	97.242				
540	97.053				
541	97.033				
542	97.183				
543	97.415				
544	97.632				
545	97.758				
546	97.819				
547	97.759				
548	97.667				
549	97.612				
550	97.636				
551	97.712				
552	97.75				
553	97.704				
554	97.561				
555	97.36				
556	97.242				
557	97.284				
558	97.492				
559	97.675				
560	97.744				
561	97.725				
562	97.629				
563	97.412				
564	97.263				
565	97.174				
566	97.201				
567	97.391				
568	97.675				
569	97.921				
570	97.959				
571	97.864				
572	97.672				
573	97.506				
574	97.579				
575	97.549				
576	97.673				
577	97.919				
578	98.167				
579	98.353				
580	98.393				
581	98.228				
582	98.051				
583	97.974				
584	97.852				
585	97.883				
586	97.936				
587	97.831				
588	97.802				
589	97.545				
590	97.241				
591	97.022				
592	96.728				
593	96.496				
594	96.46				
595	96.498				
596	96.858				
597	97.274				
598	97.457				
599	97.907				
600	98.274				
601	98.24				
602	98.39				
603	98.31				
604	98.068				
605	97.726				
606	97.698				
607	97.802				
608	97.85				
609	97.997				
610	98.277				
611	98.258				
612	98.096				
613	97.924				
614	97.789				
615	97.698				
616	97.62				
617	97.593				
618	97.795				
619	98.088				
620	98.323				
621	98.457				
622	98.41				
623	98.199				
624	97.882				
625	97.466				
626	97.126				
627	96.984				
628	97.039				
629	97.186				
630	97.449				
631	97.764				
632	98.057				
633	98.213				
634	98.265				
635	98.237				
636	98.098				
637	97.937				
638	97.786				
639	97.731				
640	97.754				
641	97.831				
642	98.017				
643	98.179				
644	98.196				
645	98.227				
646	98.281				
647	98.22				
648	98.161				
649	98.104				
650	97.794				
651	96.863				
652	94.717				
653	90.398				
654	84.181				
655	75.748				
656	66.373				
657	56.075				
658	46.304				
659	37.906				
660	30.521				
661	24.764				
662	20.326				
663	17.019				
664	14.494				
665	12.482				
666	11.035				
667	10.019				
668	9.369				
669	9.05				
670	9.078				
671	9.509				
672	10.467				
673	12.169				
674	15.297				
675	21.139				
676	32.59				
677	51.242				
678	68.233				
679	65.951				
680	45.869				
681	26.576				
682	15.588				
683	9.916				
684	6.876				
685	5.121				
686	4.095				
687	3.402				
688	2.927				
689	2.655				
690	2.499				
691	2.44				
692	2.47				
693	2.59				
694	2.829				
695	3.18				
696	3.714				
697	4.515				
698	5.599				
699	6.985				
700	8.527				
701	9.855				
702	10.567				
703	10.566				
704	10.01				
705	9.055				
706	7.847				
707	6.624				
708	5.636				
709	4.936				
710	4.527				
711	4.355				
712	4.367				
713	4.539				
714	4.87				
715	5.377				
716	6.058				
717	6.911				
718	7.895				
719	8.873				
720	9.72				
721	10.321				
722	10.558				
723	10.459				
724	10.106				
725	9.632				
726	9.148				
727	8.766				
728	8.565				
729	8.55				
730	8.749				
731	9.193				
732	9.919				
733	10.967				
734	12.387				
735	14.163				
736	16.58				
737	19.603				
738	23.112				
739	26.715				
740	30.588				
741	34.154				
742	37.185				
743	39.55				
744	41.351				
745	42.681				
746	43.777				
747	44.831				
748	45.849				
749	46.812				
750	47.973				
