Wavelength	Transmittance	hex_color	Manufacturer	Name	Filter Number
300	0.0		Chroma		ET590lp
301	0.0				
302	0.0				
303	0.0				
304	0.0				
305	0.0				
306	0.0				
307	0.0				
308	0.0				
309	0.0				
310	0.0				
311	0.0				
312	0.0				
313	0.0				
314	0.0				
315	0.0				
316	0.0				
317	0.0				
318	0.0				
319	0.0				
320	0.0				
321	0.0				
322	0.0				
323	0.0				
324	0.0				
325	0.0				
326	0.0				
327	0.0				
328	0.0				
329	0.0				
330	0.0				
331	0.0				
332	0.0				
333	0.0				
334	0.0				
335	0.0				
336	0.0				
337	0.0				
338	0.0				
339	0.0				
340	0.0				
341	0.0				
342	0.0				
343	0.0				
344	0.0				
345	0.0				
346	0.0				
347	0.0				
348	0.0				
349	0.0				
350	0.0				
351	0.0				
352	0.0				
353	0.0				
354	0.0				
355	0.0				
356	0.0				
357	0.0				
358	0.0				
359	0.0				
360	0.0				
361	0.0				
362	0.0				
363	0.0				
364	0.0				
365	0.0				
366	0.0				
367	0.0				
368	0.0				
369	0.0				
370	0.0				
371	0.0				
372	0.0				
373	0.0				
374	0.0				
375	0.0				
376	0.0				
377	0.0				
378	0.0				
379	0.0				
380	0.0				
381	0.0				
382	0.0				
383	0.0				
384	0.0				
385	0.0				
386	0.0				
387	0.0				
388	0.0				
389	0.0				
390	0.0				
391	0.0				
392	0.0				
393	0.0				
394	0.0				
395	0.0				
396	0.0				
397	0.0				
398	0.0				
399	0.0				
400	0.0				
401	0.0				
402	0.0				
403	0.0				
404	0.0				
405	0.0				
406	0.0				
407	0.0				
408	0.0				
409	0.0				
410	0.0				
411	0.0				
412	0.0				
413	0.0				
414	0.0				
415	0.0				
416	0.0				
417	0.0				
418	0.0				
419	0.0				
420	0.0				
421	0.0				
422	0.0				
423	0.0				
424	0.0				
425	0.0				
426	0.0				
427	0.0				
428	0.0				
429	0.0				
430	0.0				
431	0.0				
432	0.0				
433	0.0				
434	0.0				
435	0.0				
436	0.0				
437	0.0				
438	0.0				
439	0.0				
440	0.0				
441	0.0				
442	0.0				
443	0.0				
444	0.0				
445	0.0				
446	0.0				
447	0.0				
448	0.0				
449	0.0				
450	0.0				
451	0.0				
452	0.0				
453	0.0				
454	0.0				
455	0.0				
456	0.0				
457	0.0				
458	0.0				
459	0.0				
460	0.0				
461	0.0				
462	0.0				
463	0.0				
464	0.0				
465	0.0				
466	0.0				
467	0.0				
468	0.0				
469	0.0				
470	0.0				
471	0.0				
472	0.0				
473	0.0				
474	0.0				
475	0.0				
476	0.0				
477	0.0				
478	0.0				
479	0.0				
480	0.0				
481	0.0				
482	0.0				
483	0.0				
484	0.0				
485	0.0				
486	0.0				
487	0.0				
488	0.0				
489	0.0				
490	0.0				
491	0.0				
492	0.0				
493	0.0				
494	0.0				
495	0.0				
496	0.0				
497	0.0				
498	0.0				
499	0.0				
500	0.0				
501	0.0				
502	0.0				
503	0.0				
504	0.0				
505	0.0				
506	0.0				
507	0.0				
508	0.0				
509	0.0				
510	0.0				
511	0.0				
512	0.0				
513	0.0				
514	0.0				
515	0.0				
516	0.0				
517	0.0				
518	0.0				
519	0.0				
520	0.0				
521	0.0				
522	0.0				
523	0.0				
524	0.0				
525	0.0				
526	0.0				
527	0.0				
528	0.0				
529	0.0				
530	0.0				
531	0.0				
532	0.0				
533	0.0				
534	0.0				
535	0.0				
536	0.0				
537	0.0				
538	0.0				
539	0.0				
540	0.0				
541	0.0				
542	0.0				
543	0.0				
544	0.0				
545	0.0				
546	0.0				
547	0.0				
548	0.0				
549	0.0				
550	0.0				
551	0.0				
552	0.0				
553	0.0				
554	0.0				
555	0.0				
556	0.0				
557	0.0				
558	0.0				
559	0.0				
560	0.0				
561	0.0				
562	0.0				
563	0.0				
564	0.0				
565	0.0				
566	0.0				
567	0.0				
568	0.0				
569	0.0				
570	0.0				
571	0.0				
572	0.0				
573	0.0				
574	0.0				
575	0.0				
576	0.0				
577	0.0				
578	0.0				
579	0.0				
580	0.0				
581	0.0				
582	0.0				
583	0.0				
584	0.0				
585	0.0				
586	0.001				
587	0.003				
588	0.015				
589	0.107				
590	1.018				
591	15.288				
592	73.995				
593	93.911				
594	95.823				
595	98.998				
596	99.411				
597	99.356				
598	99.303				
599	99.203				
600	98.968				
601	98.73				
602	98.697				
603	98.919				
604	99.185				
605	99.506				
606	99.572				
607	99.589				
608	99.579				
609	99.526				
610	99.57				
611	99.542				
612	99.57				
613	99.352				
614	99.291				
615	99.379				
616	99.324				
617	99.403				
618	99.309				
619	99.247				
620	99.152				
621	99.006				
622	98.957				
623	99.111				
624	99.344				
625	99.565				
626	99.703				
627	99.818				
628	99.768				
629	99.708				
630	99.541				
631	99.524				
632	99.418				
633	99.393				
634	99.461				
635	99.516				
636	99.475				
637	99.413				
638	99.257				
639	98.97				
640	98.855				
641	98.629				
642	98.348				
643	98.267				
644	98.257				
645	98.293				
646	98.403				
647	98.553				
648	98.735				
649	98.912				
650	99.057				
651	99.212				
652	99.416				
653	99.511				
654	99.624				
655	99.812				
656	99.807				
657	99.86				
658	99.935				
659	99.962				
660	99.963				
661	99.943				
662	99.878				
663	99.862				
664	99.805				
665	99.691				
666	99.61				
667	99.54				
668	99.358				
669	99.256				
670	99.23				
671	99.083				
672	99.027				
673	98.977				
674	98.878				
675	98.806				
676	98.819				
677	98.755				
678	98.693				
679	98.808				
680	98.804				
681	98.879				
682	99.037				
683	99.138				
684	99.295				
685	99.392				
686	99.557				
687	99.571				
688	99.525				
689	99.567				
690	99.392				
691	99.312				
692	99.096				
693	98.971				
694	98.901				
695	98.74				
696	98.875				
697	98.966				
698	99.031				
699	99.204				
700	99.41				
701	99.494				
702	99.67				
703	99.719				
704	99.769				
705	99.66				
706	99.549				
707	99.465				
708	99.258				
709	99.247				
710	99.121				
711	98.975				
712	99.024				
713	99.033				
714	99.082				
715	99.273				
716	99.362				
717	99.44				
718	99.583				
719	99.612				
720	99.686				
721	99.691				
722	99.569				
723	99.505				
724	99.494				
725	99.294				
726	99.171				
727	99.154				
728	99.201				
729	99.245				
730	99.322				
731	99.37				
732	99.6				
733	99.654				
734	99.55				
735	99.654				
736	99.749				
737	99.686				
738	99.684				
739	99.511				
740	99.459				
741	99.25				
742	99.391				
743	99.102				
744	99.168				
745	99.274				
746	99.223				
747	99.05				
748	99.166				
749	99.213				
750	99.173				
751	99.157				
752	99.13				
753	99.178				
754	98.825				
755	98.872				
756	98.839				
757	98.795				
758	98.591				
759	98.701				
760	98.511				
761	98.595				
762	98.698				
763	98.953				
764	99.095				
765	99.184				
766	99.243				
767	99.325				
768	99.316				
769	99.652				
770	99.756				
771	99.645				
772	99.564				
773	99.412				
774	99.396				
775	99.213				
776	99.11				
777	98.984				
778	98.92				
779	98.881				
780	98.829				
781	98.948				
782	99.262				
783	99.341				
784	99.263				
785	99.498				
786	99.421				
787	99.614				
788	99.594				
789	99.555				
790	99.27				
791	99.398				
792	98.883				
793	98.704				
794	98.314				
795	98.052				
796	97.641				
797	97.212				
798	97.308				
799	96.985				
800	96.876				
801	96.856				
802	96.906				
803	97.002				
804	97.218				
805	97.348				
806	97.636				
807	97.677				
808	97.909				
809	98.006				
810	98.074				
811	97.932				
812	97.902				
813	97.671				
814	97.502				
815	97.173				
816	96.962				
817	96.671				
818	96.419				
819	96.236				
820	96.123				
821	96.012				
822	96.104				
823	96.25				
824	96.404				
825	96.712				
826	97.038				
827	97.446				
828	97.843				
829	98.166				
830	98.585				
831	98.84				
832	99.101				
833	99.286				
834	99.27				
835	99.17				
836	98.96				
837	98.817				
838	98.439				
839	98.059				
840	97.656				
841	97.307				
842	96.882				
843	96.635				
844	96.368				
845	96.218				
846	96.042				
847	96.147				
848	96.224				
849	96.309				
850	96.57				
851	96.873				
852	97.124				
853	97.341				
854	97.652				
855	97.826				
856	97.96				
857	98.076				
858	98.114				
859	97.985				
860	97.735				
861	97.535				
862	97.159				
863	96.806				
864	96.394				
865	95.939				
866	95.643				
867	95.211				
868	94.957				
869	94.766				
870	94.698				
871	94.711				
872	94.687				
873	94.872				
874	95.219				
875	95.548				
876	95.874				
877	96.358				
878	96.85				
879	97.288				
880	97.758				
881	98.192				
882	98.472				
883	98.73				
884	98.893				
885	98.927				
886	98.823				
887	98.684				
888	98.378				
889	97.964				
890	97.67				
891	97.239				
892	96.76				
893	96.378				
894	95.87				
895	95.556				
896	95.234				
897	94.999				
898	94.873				
899	94.777				
900	94.795				
901	94.918				
902	95.032				
903	95.217				
904	95.44				
905	95.745				
906	96.031				
907	96.273				
908	96.507				
909	96.705				
910	96.828				
911	96.844				
912	96.788				
913	96.635				
914	96.445				
915	96.209				
916	95.756				
917	95.363				
918	94.918				
919	94.414				
920	93.89				
921	93.444				
922	93.018				
923	92.586				
924	92.282				
925	92.029				
926	91.825				
927	91.806				
928	91.795				
929	91.872				
930	92.087				
931	92.334				
932	92.712				
933	93.124				
934	93.568				
935	93.986				
936	94.539				
937	95.053				
938	95.453				
939	95.864				
940	96.306				
941	96.644				
942	96.832				
943	96.989				
944	97.161				
945	97.056				
946	96.92				
947	96.841				
948	96.646				
949	96.364				
950	96.036				
951	95.809				
952	95.505				
953	95.244				
954	94.947				
955	94.76				
956	94.607				
957	94.475				
958	94.484				
959	94.514				
960	94.62				
961	94.782				
962	94.989				
963	95.234				
964	95.472				
965	95.824				
966	96.197				
967	96.594				
968	96.901				
969	97.222				
970	97.471				
971	97.698				
972	97.887				
973	97.931				
974	97.99				
975	97.866				
976	97.746				
977	97.47				
978	97.115				
979	96.743				
980	96.25				
981	95.782				
982	95.317				
983	94.769				
984	94.183				
985	93.677				
986	93.286				
987	92.711				
988	92.318				
989	91.935				
990	91.603				
991	91.417				
992	91.26				
993	91.155				
994	91.102				
995	91.116				
996	91.2				
997	91.349				
998	91.55				
999	91.771				
1000	91.993				
1001	92.253				
1002	92.554				
1003	92.876				
1004	93.144				
1005	93.372				
1006	93.616				
1007	93.826				
1008	93.946				
1009	94.09				
1010	94.127				
1011	94.073				
1012	94.095				
1013	93.958				
1014	93.813				
1015	93.68				
1016	93.469				
1017	93.25				
1018	93.096				
1019	92.83				
1020	92.633				
1021	92.434				
1022	92.271				
1023	92.123				
1024	92.062				
1025	91.985				
1026	91.993				
1027	92.083				
1028	92.208				
1029	92.333				
1030	92.478				
1031	92.747				
1032	93.193				
1033	93.491				
1034	93.91				
1035	94.274				
1036	94.653				
1037	95.138				
1038	95.557				
1039	95.942				
1040	96.352				
1041	96.746				
1042	97.049				
1043	97.314				
1044	97.522				
1045	97.679				
1046	97.718				
1047	97.746				
1048	97.738				
1049	97.649				
1050	97.477				
1051	97.273				
1052	97.037				
1053	96.759				
1054	96.321				
1055	96.029				
1056	95.634				
1057	95.198				
1058	94.821				
1059	94.528				
1060	94.004				
1061	93.78				
1062	93.471				
1063	93.122				
1064	92.937				
1065	92.762				
1066	92.451				
1067	92.491				
1068	92.337				
1069	92.363				
1070	92.476				
1071	92.287				
1072	92.621				
1073	92.531				
1074	92.74				
1075	92.843				
1076	92.93				
1077	93.245				
1078	93.212				
1079	93.598				
1080	93.563				
1081	93.763				
1082	93.775				
1083	93.878				
1084	93.878				
1085	93.853				
1086	93.914				
1087	93.568				
1088	93.622				
1089	93.301				
1090	93.395				
1091	92.885				
1092	92.862				
1093	92.359				
1094	92.318				
1095	91.712				
1096	91.773				
1097	91.27				
1098	91.131				
1099	90.75				
1100	90.512				
