Wavelength	Transmittance	hex_color	Manufacturer	Name	Filter Number
300	0.0		Chroma		zet405488561635mwf0
301	0.0				
302	0.0				
303	0.0				
304	0.0				
305	0.0				
306	0.0				
307	0.0				
308	0.0				
309	0.0				
310	0.0				
311	0.0				
312	0.0				
313	0.0				
314	0.0				
315	0.0				
316	0.0				
317	0.0				
318	0.0				
319	0.0				
320	0.0				
321	0.0				
322	0.0				
323	0.0				
324	0.0				
325	0.0				
326	0.0				
327	0.0				
328	0.0				
329	0.0				
330	0.0				
331	0.0				
332	0.0				
333	0.0				
334	0.0				
335	0.0				
336	0.0				
337	0.0				
338	0.0				
339	0.0				
340	0.0				
341	0.0				
342	0.0				
343	0.0				
344	0.0				
345	0.0				
346	0.0				
347	0.0				
348	0.0				
349	0.0				
350	0.0				
351	0.0				
352	0.0				
353	0.0				
354	0.0				
355	0.0				
356	0.0				
357	0.0				
358	0.0				
359	0.0				
360	0.0				
361	0.0				
362	0.0				
363	0.0				
364	0.0				
365	0.0				
366	0.0				
367	0.0				
368	0.0				
369	0.0				
370	0.0				
371	0.0				
372	0.0				
373	0.0				
374	0.0				
375	0.0				
376	0.0				
377	0.0				
378	0.0				
379	0.0				
380	0.0				
381	0.0				
382	0.0				
383	0.0				
384	0.0				
385	0.0				
386	0.0				
387	0.0				
388	0.0				
389	0.0				
390	0.0				
391	0.0				
392	0.0				
393	0.0				
394	0.0				
395	0.0				
396	0.0				
397	0.0				
398	0.0				
399	0.0				
400	0.0				
401	0.0				
402	0.0				
403	0.0				
404	0.0				
405	0.0				
406	0.0				
407	0.0				
408	0.0				
409	0.0				
410	0.0				
411	0.0				
412	0.0				
413	0.0				
414	0.0				
415	0.0				
416	0.0				
417	0.0				
418	0.0				
419	0.0				
420	0.0				
421	0.0				
422	0.002				
423	0.021				
424	12.023				
425	76.204				
426	92.606				
427	95.687				
428	96.67				
429	96.143				
430	95.86				
431	96.602				
432	96.579				
433	95.492				
434	96.27				
435	93.856				
436	95.298				
437	95.933				
438	96.12				
439	95.565				
440	95.928				
441	96.55				
442	96.385				
443	96.852				
444	96.548				
445	96.685				
446	94.58				
447	95.183				
448	95.98				
449	95.951				
450	97.195				
451	95.922				
452	95.88				
453	96.117				
454	96.661				
455	96.631				
456	96.833				
457	96.342				
458	97.136				
459	96.532				
460	95.438				
461	94.191				
462	92.542				
463	94.705				
464	92.353				
465	95.286				
466	94.589				
467	90.557				
468	87.358				
469	90.205				
470	83.969				
471	72.875				
472	32.652				
473	1.891				
474	0.051				
475	0.002				
476	0.0				
477	0.0				
478	0.0				
479	0.0				
480	0.0				
481	0.0				
482	0.0				
483	0.0				
484	0.0				
485	0.0				
486	0.0				
487	0.0				
488	0.0				
489	0.0				
490	0.0				
491	0.0				
492	0.0				
493	0.0				
494	0.0				
495	0.0				
496	0.0				
497	0.0				
498	0.0				
499	0.0				
500	0.0				
501	0.0				
502	0.0				
503	0.0				
504	0.0				
505	0.0				
506	0.0				
507	0.0				
508	0.007				
509	0.168				
510	15.175				
511	74.107				
512	93.729				
513	91.54				
514	88.554				
515	95.358				
516	97.483				
517	96.245				
518	96.175				
519	96.08				
520	93.635				
521	95.17				
522	97.33				
523	96.478				
524	93.12				
525	92.855				
526	95.116				
527	94.294				
528	95.588				
529	96.915				
530	96.827				
531	96.664				
532	95.595				
533	96.5				
534	96.453				
535	95.889				
536	96.6				
537	95.156				
538	92.633				
539	92.608				
540	84.628				
541	84.147				
542	32.936				
543	2.172				
544	0.241				
545	0.012				
546	0.001				
547	0.0				
548	0.0				
549	0.0				
550	0.0				
551	0.0				
552	0.0				
553	0.0				
554	0.0				
555	0.0				
556	0.0				
557	0.0				
558	0.0				
559	0.0				
560	0.0				
561	0.0				
562	0.0				
563	0.0				
564	0.0				
565	0.0				
566	0.0				
567	0.0				
568	0.0				
569	0.0				
570	0.0				
571	0.0				
572	0.0				
573	0.0				
574	0.0				
575	0.002				
576	0.016				
577	0.226				
578	5.597				
579	52.789				
580	89.007				
581	90.115				
582	95.359				
583	97.285				
584	94.163				
585	92.281				
586	95.342				
587	96.125				
588	95.553				
589	97.04				
590	98.373				
591	98.205				
592	98.422				
593	98.229				
594	98.23				
595	98.117				
596	98.1				
597	98.357				
598	98.214				
599	97.194				
600	96.285				
601	95.433				
602	95.09				
603	96.26				
604	97.842				
605	97.778				
606	97.32				
607	97.903				
608	97.378				
609	96.04				
610	96.614				
611	96.459				
612	93.904				
613	93.566				
614	96.514				
615	97.849				
616	97.199				
617	96.75				
618	94.978				
619	26.555				
620	2.391				
621	0.185				
622	0.016				
623	0.002				
624	0.0				
625	0.0				
626	0.0				
627	0.0				
628	0.0				
629	0.0				
630	0.0				
631	0.0				
632	0.0				
633	0.0				
634	0.0				
635	0.0				
636	0.0				
637	0.0				
638	0.0				
639	0.0				
640	0.0				
641	0.0				
642	0.0				
643	0.0				
644	0.0				
645	0.0				
646	0.0				
647	0.0				
648	0.0				
649	0.0				
650	0.0				
651	0.0				
652	0.0				
653	0.0				
654	0.0				
655	0.0				
656	0.0				
657	0.001				
658	0.002				
659	0.015				
660	0.141				
661	2.775				
662	42.919				
663	94.535				
664	95.421				
665	91.999				
666	95.348				
667	97.669				
668	96.755				
669	95.441				
670	93.401				
671	92.472				
672	94.346				
673	97.266				
674	98.796				
675	98.935				
676	98.56				
677	98.045				
678	97.272				
679	96.854				
680	97.388				
681	97.972				
682	98.387				
683	97.996				
684	97.828				
685	98.034				
686	98.188				
687	98.195				
688	98.257				
689	98.422				
690	98.868				
691	98.785				
692	98.343				
693	97.7				
694	97.683				
695	98.083				
696	98.593				
697	98.967				
698	98.794				
699	98.07				
700	97.993				
701	97.732				
702	97.831				
703	98.296				
704	98.405				
705	98.899				
706	99.253				
707	99.067				
708	98.786				
709	97.786				
710	97.047				
711	96.532				
712	96.621				
713	97.575				
714	98.559				
715	99.082				
716	98.621				
717	97.66				
718	96.386				
719	96.113				
720	95.974				
721	96.457				
722	96.971				
723	97.513				
724	98.177				
725	98.655				
726	98.197				
727	97.577				
728	96.502				
729	96.546				
730	96.569				
731	97.623				
732	98.785				
733	98.961				
734	98.737				
735	98.336				
736	98.146				
737	98.304				
738	98.319				
739	98.902				
740	98.978				
741	99.206				
742	99.123				
743	98.408				
744	97.71				
745	97.699				
746	98.221				
747	99.009				
748	98.598				
749	97.666				
750	97.111				
751	95.802				
752	84.756				
753	60.272				
754	35.829				
755	20.5				
756	12.926				
757	9.141				
758	7.127				
759	5.625				
760	4.021				
761	2.477				
762	1.388				
763	0.787				
764	0.479				
765	0.32				
766	0.235				
767	0.19				
768	0.167				
769	0.162				
770	0.171				
771	0.194				
772	0.24				
773	0.317				
774	0.425				
775	0.546				
776	0.647				
777	0.708				
778	0.759				
779	0.847				
780	1.052				
781	1.524				
782	2.704				
783	6.657				
784	23.517				
785	44.08				
786	21.143				
787	10.357				
788	7.277				
789	6.885				
790	8.217				
791	12.609				
792	21.506				
793	24.256				
794	11.768				
795	5.443				
796	2.771				
797	1.724				
798	1.227				
799	0.995				
800	0.895				
801	0.867				
802	0.883				
803	0.921				
804	0.935				
805	0.907				
806	0.876				
807	0.842				
808	0.869				
809	0.997				
810	1.328				
811	2.241				
812	5.919				
813	20.974				
814	18.648				
815	3.954				
816	1.977				
817	1.201				
818	0.904				
819	0.807				
820	0.821				
821	0.935				
822	1.162				
823	1.58				
824	2.221				
825	3.201				
826	4.61				
827	6.674				
828	9.718				
829	13.993				
830	16.559				
831	13.675				
832	8.918				
833	5.893				
834	4.295				
835	3.559				
836	3.288				
837	3.335				
838	3.567				
839	3.903				
840	4.245				
841	4.524				
842	4.93				
843	5.824				
844	7.95				
845	14.004				
846	27.95				
847	30.876				
848	9.645				
849	5.548				
850	4.023				
851	2.324				
852	1.619				
853	1.35				
854	1.293				
855	1.402				
856	1.69				
857	2.331				
858	3.694				
859	6.98				
860	16.411				
861	42.713				
862	61.473				
863	41.14				
864	28.412				
865	25.094				
866	27.704				
867	37.48				
868	58.831				
869	86.457				
870	82.311				
871	52.682				
872	31.05				
873	19.336				
874	13.108				
875	9.347				
876	7.124				
877	5.767				
878	4.949				
879	4.614				
880	4.631				
881	5.001				
882	5.851				
883	7.238				
884	9.243				
885	11.681				
886	13.267				
887	13.286				
888	12.181				
889	10.723				
890	9.218				
891	7.532				
892	5.846				
893	4.387				
894	3.206				
895	2.413				
896	1.916				
897	1.635				
898	1.502				
899	1.542				
900	1.758				
901	2.332				
902	3.883				
903	9.343				
904	31.778				
905	24.855				
906	7.479				
907	2.537				
908	1.306				
909	0.843				
910	0.618				
911	0.515				
912	0.465				
913	0.452				
914	0.473				
915	0.531				
916	0.635				
917	0.812				
918	1.109				
919	1.648				
920	2.657				
921	4.605				
922	8.566				
923	16.688				
924	29.366				
925	43.106				
926	50.579				
927	48.764				
928	37.089				
929	24.07				
930	15.063				
931	9.832				
932	7.045				
933	5.497				
934	4.71				
935	4.347				
936	4.39				
937	4.776				
938	5.628				
939	7.22				
940	10.13				
941	14.98				
942	22.143				
943	27.908				
944	27.219				
945	22.53				
946	18.62				
947	16.592				
948	16.215				
949	18.081				
950	22.519				
951	31.526				
952	47.405				
953	55.511				
954	40.451				
955	23.144				
956	13.945				
957	9.276				
958	6.835				
959	5.511				
960	4.838				
961	4.581				
962	4.674				
963	5.126				
964	6.163				
965	8.0				
966	11.095				
967	15.739				
968	18.891				
969	16.235				
970	11.1				
971	7.236				
972	5.038				
973	3.746				
974	3.016				
975	2.591				
976	2.342				
977	2.292				
978	2.313				
979	2.508				
980	2.817				
981	3.407				
982	4.276				
983	5.8				
984	8.303				
985	13.143				
986	22.15				
987	38.764				
988	65.048				
989	89.653				
990	90.26				
991	80.27				
992	70.656				
993	66.855				
994	68.125				
995	71.777				
996	75.707				
997	77.551				
998	78.746				
999	77.384				
1000	73.499				
