Wavelength	Transmittance	hex_color	Manufacturer	Name	Filter Number
380	2.829		Chroma		ZT405/488/532/640rpc-XT
381	3.261				
382	3.868				
383	10.459				
384	18.723				
385	16.106				
386	7.4				
387	2.973				
388	2.382				
389	3.771				
390	6.708				
391	9.01				
392	12.603				
393	15.906				
394	11.224				
395	3.885				
396	2.136				
397	2.906				
398	4.856				
399	9.656				
400	13.937				
401	8.308				
402	1.894				
403	1.045				
404	0.936				
405	0.629				
406	0.332				
407	0.236				
408	0.2				
409	0.197				
410	0.21				
411	0.226				
412	0.297				
413	0.569				
414	2.063				
415	8.698				
416	24.413				
417	41.342				
418	48.645				
419	53.908				
420	68.241				
421	86.422				
422	94.025				
423	94.972				
424	95.171				
425	96.143				
426	97.145				
427	97.203				
428	96.993				
429	97.173				
430	97.219				
431	97.066				
432	97.249				
433	97.648				
434	98.017				
435	98.347				
436	98.444				
437	97.946				
438	96.935				
439	96.048				
440	95.846				
441	96.301				
442	96.6				
443	96.602				
444	96.458				
445	96.32				
446	96.587				
447	97.063				
448	97.303				
449	97.324				
450	96.77				
451	95.514				
452	94.261				
453	94.09				
454	95.067				
455	96.155				
456	96.5				
457	96.215				
458	96.004				
459	96.404				
460	97.022				
461	97.238				
462	97.012				
463	96.748				
464	96.706				
465	96.68				
466	96.365				
467	95.923				
468	95.655				
469	96.176				
470	96.979				
471	97.025				
472	96.503				
473	96.277				
474	96.339				
475	96.429				
476	95.855				
477	91.657				
478	76.261				
479	49.91				
480	25.317				
481	12.464				
482	6.387				
483	3.735				
484	2.52				
485	1.906				
486	1.623				
487	1.519				
488	1.564				
489	1.785				
490	2.263				
491	3.183				
492	5.129				
493	9.092				
494	17.291				
495	30.141				
496	45.064				
497	56.254				
498	68.309				
499	83.668				
500	93.426				
501	96.205				
502	96.942				
503	97.253				
504	96.68				
505	95.982				
506	96.134				
507	96.949				
508	97.564				
509	97.233				
510	96.421				
511	95.934				
512	96.002				
513	96.4				
514	96.711				
515	96.785				
516	96.751				
517	96.816				
518	96.759				
519	96.314				
520	95.75				
521	95.625				
522	94.255				
523	85.498				
524	65.219				
525	39.582				
526	21.228				
527	12.113				
528	7.391				
529	4.969				
530	3.706				
531	2.939				
532	2.48				
533	2.277				
534	2.231				
535	2.332				
536	2.606				
537	3.105				
538	4.014				
539	5.496				
540	7.994				
541	12.084				
542	19.148				
543	29.387				
544	40.627				
545	50.584				
546	57.984				
547	66.353				
548	77.891				
549	89.503				
550	94.591				
551	95.099				
552	95.144				
553	95.807				
554	96.542				
555	96.778				
556	96.782				
557	96.838				
558	96.944				
559	97.164				
560	97.502				
561	97.341				
562	96.842				
563	96.164				
564	95.459				
565	95.078				
566	95.253				
567	95.892				
568	96.713				
569	97.357				
570	97.735				
571	97.845				
572	97.56				
573	97.219				
574	96.885				
575	96.838				
576	97.004				
577	97.228				
578	97.372				
579	97.407				
580	97.26				
581	97.01				
582	96.702				
583	96.486				
584	96.54				
585	96.885				
586	97.327				
587	97.674				
588	97.866				
589	97.942				
590	97.846				
591	97.693				
592	97.527				
593	97.427				
594	97.407				
595	97.401				
596	97.368				
597	97.256				
598	97.104				
599	96.918				
600	96.752				
601	96.825				
602	97.005				
603	97.29				
604	97.503				
605	97.578				
606	97.373				
607	97.303				
608	97.064				
609	96.796				
610	96.472				
611	96.259				
612	96.361				
613	96.683				
614	97.085				
615	97.394				
616	97.465				
617	97.224				
618	96.899				
619	96.775				
620	97.024				
621	97.368				
622	96.783				
623	93.249				
624	84.64				
625	70.897				
626	54.652				
627	40.079				
628	28.799				
629	20.508				
630	15.162				
631	11.311				
632	8.804				
633	7.053				
634	5.818				
635	4.906				
636	4.255				
637	3.785				
638	3.454				
639	3.227				
640	3.086				
641	3.025				
642	3.036				
643	3.117				
644	3.274				
645	3.518				
646	3.866				
647	4.347				
648	4.989				
649	5.858				
650	7.059				
651	8.736				
652	10.948				
653	13.957				
654	17.986				
655	23.341				
656	29.941				
657	37.354				
658	44.423				
659	51.056				
660	56.87				
661	62.525				
662	69.3				
663	77.44				
664	85.404				
665	91.689				
666	95.184				
667	96.368				
668	96.582				
669	96.696				
670	97.007				
671	97.522				
672	98.093				
673	98.424				
674	98.415				
675	98.131				
676	97.634				
677	97.032				
678	96.56				
679	96.235				
680	96.215				
681	96.461				
682	96.923				
683	97.455				
684	97.922				
685	98.36				
686	98.494				
687	98.385				
688	98.216				
689	97.951				
690	97.412				
691	96.921				
692	96.477				
693	96.153				
694	96.162				
695	96.417				
696	96.85				
697	97.277				
698	97.741				
699	98.237				
700	98.517				
701	98.558				
702	98.46				
703	98.339				
704	98.114				
705	97.589				
706	97.188				
707	96.994				
708	96.915				
709	96.89				
710	96.986				
711	97.06				
712	97.156				
713	97.376				
714	97.437				
715	97.534				
716	97.529				
717	97.398				
718	97.178				
719	96.968				
720	96.692				
721	96.392				
722	96.156				
723	96.046				
724	95.994				
725	96.007				
726	96.263				
727	96.533				
728	96.886				
729	97.193				
730	97.479				
731	97.65				
732	97.783				
733	97.791				
734	97.724				
735	97.493				
736	97.291				
737	97.104				
738	96.863				
739	96.588				
740	96.45				
741	96.375				
742	96.371				
743	96.411				
744	96.517				
745	96.729				
746	97.006				
747	97.201				
748	97.43				
749	97.704				
750	97.968				
751	97.954				
752	97.909				
753	97.819				
754	97.742				
755	97.631				
756	97.575				
757	97.26				
758	97.025				
759	96.947				
760	96.873				
761	96.904				
762	96.958				
763	97.054				
764	97.222				
765	97.47				
766	97.687				
767	97.976				
768	98.23				
769	98.348				
770	98.506				
771	98.571				
772	98.669				
773	98.65				
774	98.605				
775	98.544				
776	98.455				
777	98.3				
778	98.136				
779	98.012				
780	97.869				
781	97.835				
782	97.787				
783	97.676				
784	97.598				
785	97.47				
786	97.35				
787	97.268				
788	97.169				
789	97.01				
790	96.805				
791	96.648				
792	96.658				
793	96.675				
794	96.667				
795	96.666				
796	96.728				
797	96.809				
798	96.761				
799	96.874				
800	96.951				
801	97.107				
802	97.206				
803	97.306				
804	97.375				
805	97.226				
806	97.21				
807	97.193				
808	97.124				
809	97.052				
810	96.928				
811	96.87				
812	96.757				
813	96.624				
814	96.488				
815	96.333				
816	96.145				
817	96.029				
818	95.992				
819	96.058				
820	96.024				
821	95.999				
822	96.002				
823	96.095				
824	96.218				
825	96.316				
826	96.376				
827	96.45				
828	96.657				
829	96.776				
830	96.86				
831	96.921				
832	96.936				
833	96.913				
834	97.018				
835	97.044				
836	97.034				
837	96.964				
838	96.746				
839	96.529				
840	96.437				
841	96.354				
842	96.348				
843	96.32				
844	96.281				
845	96.263				
846	96.314				
847	96.431				
848	96.461				
849	96.447				
850	96.483				
851	96.503				
852	96.558				
853	96.626				
854	96.737				
855	96.747				
856	96.731				
857	96.67				
858	96.622				
859	96.588				
860	96.513				
861	96.411				
862	96.433				
863	96.432				
864	96.496				
865	96.623				
866	96.818				
867	97.078				
868	97.262				
869	97.434				
870	97.724				
871	97.865				
872	97.874				
873	97.459				
874	96.783				
875	95.621				
876	94.033				
877	91.89				
878	88.988				
879	85.629				
880	81.661				
881	77.523				
882	72.948				
883	68.396				
884	63.747				
885	59.046				
886	54.68				
887	50.438				
888	46.621				
889	43.186				
890	39.97				
891	37.277				
892	34.849				
893	32.835				
894	30.974				
895	29.469				
896	28.194				
897	27.265				
898	26.483				
899	25.875				
900	25.465				
901	25.253				
902	25.2				
903	25.337				
904	25.677				
905	26.193				
906	26.918				
907	27.833				
908	28.948				
909	30.385				
910	32.017				
911	33.929				
912	36.239				
913	38.847				
914	41.703				
915	45.084				
916	48.858				
917	52.865				
918	56.949				
919	61.407				
920	66.026				
921	70.526				
922	74.697				
923	78.793				
924	82.607				
925	85.918				
926	88.301				
927	89.742				
928	89.697				
929	88.015				
930	84.713				
931	80.402				
932	75.603				
933	70.72				
934	65.774				
935	61.282				
936	57.224				
937	53.839				
938	50.872				
939	48.37				
940	46.36				
941	44.675				
942	43.328				
943	42.298				
944	41.485				
945	40.907				
946	40.549				
947	40.348				
948	40.27				
949	40.311				
950	40.433				
951	40.643				
952	40.956				
953	41.299				
954	41.651				
955	42.118				
956	42.566				
957	43.02				
958	43.524				
959	44.062				
960	44.624				
961	45.175				
962	45.745				
963	46.34				
964	47.002				
965	47.658				
966	48.371				
967	49.147				
968	49.955				
969	50.819				
970	51.81				
971	52.797				
972	53.825				
973	54.968				
974	56.318				
975	57.721				
976	59.206				
977	60.771				
978	62.493				
979	64.241				
980	66.064				
981	67.986				
982	70.019				
983	71.912				
984	73.924				
985	76.008				
986	77.959				
987	79.927				
988	81.738				
989	83.438				
990	85.091				
991	86.403				
992	87.556				
993	88.492				
994	89.172				
995	89.62				
996	89.805				
997	89.751				
998	89.604				
999	89.295				
1000	88.892				
