Wavelength	Transmittance	hex_color	Manufacturer	Name	Filter Number
390	2.246		Chroma		21006v20
391	2.511				
392	2.924				
393	2.719				
394	2.046				
395	1.47				
396	0.935				
397	0.541				
398	0.498				
399	0.43				
400	0.389				
401	0.545				
402	0.957				
403	0.958				
404	0.81				
405	0.916				
406	0.745				
407	0.35				
408	0.404				
409	0.338				
410	0.358				
411	0.116				
412	0.275				
413	0.125				
414	0.186				
415	0.131				
416	0.174				
417	0.111				
418	0.0				
419	0.05				
420	0.201				
421	0.252				
422	0.305				
423	0.413				
424	0.549				
425	0.758				
426	0.723				
427	0.693				
428	0.647				
429	0.544				
430	0.526				
431	0.631				
432	0.737				
433	0.642				
434	0.528				
435	0.415				
436	0.24				
437	0.158				
438	0.159				
439	0.182				
440	0.17				
441	0.114				
442	0.153				
443	0.022				
444	0.064				
445	0.059				
446	0.085				
447	0.146				
448	0.122				
449	0.147				
450	0.12				
451	0.193				
452	0.09				
453	0.123				
454	0.126				
455	0.139				
456	0.104				
457	0.157				
458	0.118				
459	0.125				
460	0.147				
461	0.132				
462	0.149				
463	0.108				
464	0.112				
465	0.19				
466	0.251				
467	0.319				
468	0.469				
469	0.748				
470	0.926				
471	1.069				
472	1.092				
473	1.007				
474	0.84				
475	0.66				
476	0.493				
477	0.463				
478	0.429				
479	0.488				
480	0.542				
481	0.583				
482	0.736				
483	0.924				
484	1.021				
485	1.073				
486	1.098				
487	1.092				
488	1.009				
489	0.984				
490	1.002				
491	0.993				
492	1.112				
493	1.17				
494	1.196				
495	1.089				
496	0.998				
497	0.937				
498	0.76				
499	0.568				
500	0.451				
501	0.312				
502	0.258				
503	0.196				
504	0.13				
505	0.177				
506	0.169				
507	0.15				
508	0.135				
509	0.186				
510	0.252				
511	0.233				
512	0.288				
513	0.293				
514	0.437				
515	0.51				
516	0.589				
517	0.69				
518	0.725				
519	0.715				
520	0.699				
521	0.548				
522	0.513				
523	0.436				
524	0.432				
525	0.392				
526	0.384				
527	0.449				
528	0.513				
529	0.601				
530	0.721				
531	0.719				
532	0.838				
533	0.802				
534	0.806				
535	0.749				
536	0.653				
537	0.533				
538	0.457				
539	0.376				
540	0.306				
541	0.269				
542	0.202				
543	0.209				
544	0.196				
545	0.149				
546	0.173				
547	0.142				
548	0.198				
549	0.252				
550	0.289				
551	0.383				
552	0.507				
553	0.777				
554	0.922				
555	1.025				
556	1.036				
557	0.967				
558	0.757				
559	0.578				
560	0.395				
561	0.257				
562	0.194				
563	0.173				
564	0.138				
565	0.103				
566	0.161				
567	0.123				
568	0.108				
569	0.115				
570	0.115				
571	0.116				
572	0.149				
573	0.182				
574	0.222				
575	0.258				
576	0.312				
577	0.366				
578	0.447				
579	0.444				
580	0.492				
581	0.466				
582	0.439				
583	0.434				
584	0.358				
585	0.32				
586	0.226				
587	0.204				
588	0.151				
589	0.128				
590	0.092				
591	0.118				
592	0.094				
593	0.094				
594	0.104				
595	0.107				
596	0.091				
597	0.092				
598	0.09				
599	0.125				
600	0.12				
601	0.119				
602	0.133				
603	0.145				
604	0.188				
605	0.216				
606	0.276				
607	0.363				
608	0.467				
609	0.581				
610	0.681				
611	0.75				
612	0.812				
613	0.881				
614	0.896				
615	0.883				
616	0.854				
617	0.768				
618	0.665				
619	0.558				
620	0.45				
621	0.385				
622	0.353				
623	0.288				
624	0.314				
625	0.303				
626	0.308				
627	0.319				
628	0.345				
629	0.38				
630	0.45				
631	0.509				
632	0.608				
633	0.695				
634	0.791				
635	0.85				
636	0.92				
637	0.971				
638	0.994				
639	1.007				
640	0.965				
641	0.934				
642	0.859				
643	0.746				
644	0.651				
645	0.536				
646	0.446				
647	0.376				
648	0.357				
649	0.315				
650	0.327				
651	0.328				
652	0.321				
653	0.311				
654	0.331				
655	0.298				
656	0.277				
657	0.269				
658	0.232				
659	0.224				
660	0.217				
661	0.21				
662	0.221				
663	0.246				
664	0.242				
665	0.267				
666	0.305				
667	0.331				
668	0.393				
669	0.46				
670	0.509				
671	0.567				
672	0.64				
673	0.71				
674	0.765				
675	0.832				
676	0.863				
677	0.883				
678	0.88				
679	0.873				
680	0.83				
681	0.777				
682	0.721				
683	0.662				
684	0.589				
685	0.536				
686	0.513				
687	0.483				
688	0.445				
689	0.413				
690	0.416				
691	0.382				
692	0.374				
693	0.341				
694	0.308				
695	0.292				
696	0.276				
697	0.272				
698	0.263				
699	0.283				
700	0.242				
701	0.231				
702	0.254				
703	0.276				
704	0.265				
705	0.286				
706	0.296				
707	0.277				
708	0.326				
709	0.31				
710	0.347				
711	0.373				
712	0.416				
713	0.425				
714	0.447				
715	0.517				
716	0.589				
717	0.608				
718	0.724				
719	0.807				
720	0.919				
721	1.037				
722	1.206				
723	1.38				
724	1.579				
725	1.806				
726	2.093				
727	2.411				
728	2.965				
729	3.438				
730	4.007				
731	4.832				
732	5.725				
733	6.736				
734	8.02				
735	9.392				
736	11.023				
737	12.816				
738	14.653				
739	16.628				
740	18.875				
741	20.994				
742	23.067				
743	25.218				
744	27.189				
745	29.054				
746	30.812				
747	32.419				
748	33.713				
749	34.925				
750	35.935				
751	36.775				
752	37.468				
753	38.149				
754	38.755				
755	39.253				
756	39.839				
757	40.293				
758	40.836				
759	41.424				
760	41.992				
761	42.6				
762	43.308				
763	44.037				
764	44.869				
765	45.912				
766	47.202				
767	48.72				
768	50.753				
769	53.395				
770	56.588				
771	60.846				
772	65.727				
773	70.844				
774	76.365				
775	81.718				
776	86.336				
777	90.445				
778	93.549				
779	95.512				
780	96.647				
781	97.108				
782	97.091				
783	96.833				
784	96.655				
785	96.411				
786	96.366				
787	96.419				
788	96.522				
789	96.68				
790	96.923				
791	97.118				
792	97.291				
793	97.467				
794	97.605				
795	97.621				
796	97.583				
797	97.538				
798	97.454				
799	97.362				
800	97.219				
801	97.073				
802	97.004				
803	96.908				
804	96.847				
805	96.723				
806	96.7				
807	96.721				
808	96.748				
809	96.792				
810	96.843				
811	96.903				
812	97.04				
813	97.075				
814	97.112				
815	97.19				
816	97.227				
817	97.212				
818	97.259				
819	97.286				
820	97.211				
821	97.207				
822	97.166				
823	97.11				
824	97.061				
825	97.017				
826	96.925				
827	96.832				
828	96.789				
829	96.695				
830	96.643				
831	96.655				
832	96.605				
833	96.593				
834	96.591				
835	96.617				
836	96.611				
837	96.642				
838	96.693				
839	96.737				
840	96.749				
841	96.824				
842	96.828				
843	96.9				
844	96.965				
845	96.965				
846	96.971				
847	96.997				
848	97.014				
849	97.019				
850	97.035				
851	97.056				
852	96.998				
853	96.992				
854	96.954				
855	96.917				
856	96.882				
857	96.815				
858	96.769				
859	96.745				
860	96.686				
861	96.669				
862	96.632				
863	96.609				
864	96.573				
865	96.551				
866	96.547				
867	96.551				
868	96.54				
869	96.553				
870	96.573				
871	96.595				
872	96.603				
873	96.624				
874	96.673				
875	96.688				
876	96.716				
877	96.755				
878	96.81				
879	96.822				
880	96.875				
881	96.9				
882	96.907				
883	96.935				
884	96.945				
885	96.943				
886	96.944				
887	96.932				
888	96.913				
889	96.891				
890	96.875				
891	96.853				
892	96.833				
893	96.816				
894	96.764				
895	96.739				
896	96.693				
897	96.663				
898	96.625				
899	96.606				
900	96.575				
901	96.543				
902	96.52				
903	96.517				
904	96.489				
905	96.482				
906	96.474				
907	96.467				
908	96.469				
909	96.482				
910	96.504				
911	96.519				
912	96.537				
913	96.556				
914	96.591				
915	96.608				
916	96.612				
917	96.633				
918	96.651				
919	96.673				
920	96.692				
921	96.713				
922	96.73				
923	96.744				
924	96.75				
925	96.77				
926	96.772				
927	96.767				
928	96.756				
929	96.732				
930	96.721				
931	96.705				
932	96.668				
933	96.628				
934	96.609				
935	96.568				
936	96.515				
937	96.454				
938	96.4				
939	96.352				
940	96.295				
941	96.25				
942	96.192				
943	96.146				
944	96.106				
945	96.045				
946	96.013				
947	95.98				
948	95.944				
949	95.911				
950	95.895				
951	95.869				
952	95.855				
953	95.847				
954	95.84				
955	95.847				
956	95.827				
957	95.836				
958	95.837				
959	95.853				
960	95.867				
961	95.897				
962	95.924				
963	95.95				
964	95.971				
965	96.001				
966	96.029				
967	96.057				
968	96.088				
969	96.127				
970	96.158				
971	96.185				
972	96.223				
973	96.259				
974	96.29				
975	96.316				
976	96.35				
977	96.382				
978	96.397				
979	96.416				
980	96.433				
981	96.448				
982	96.46				
983	96.47				
984	96.477				
985	96.486				
986	96.489				
987	96.484				
988	96.476				
989	96.474				
990	96.471				
991	96.472				
992	96.469				
993	96.461				
994	96.457				
995	96.46				
996	96.456				
997	96.432				
998	96.429				
999	96.415				
1000	96.413				
1001	96.405				
1002	96.407				
1003	96.406				
1004	96.407				
1005	96.423				
1006	96.419				
1007	96.42				
1008	96.435				
1009	96.432				
1010	96.428				
1011	96.44				
1012	96.461				
1013	96.479				
1014	96.495				
1015	96.518				
1016	96.543				
1017	96.559				
1018	96.577				
1019	96.591				
1020	96.602				
1021	96.613				
1022	96.631				
1023	96.671				
1024	96.688				
1025	96.699				
1026	96.711				
1027	96.736				
1028	96.734				
1029	96.74				
1030	96.738				
1031	96.746				
1032	96.76				
1033	96.761				
1034	96.759				
1035	96.775				
1036	96.784				
1037	96.797				
1038	96.786				
1039	96.768				
1040	96.748				
1041	96.727				
1042	96.714				
1043	96.695				
1044	96.694				
1045	96.688				
1046	96.679				
1047	96.668				
1048	96.653				
1049	96.629				
1050	96.614				
1051	96.587				
1052	96.577				
1053	96.554				
1054	96.54				
1055	96.529				
1056	96.537				
1057	96.537				
1058	96.533				
1059	96.517				
1060	96.494				
1061	96.482				
1062	96.459				
1063	96.473				
1064	96.473				
1065	96.479				
1066	96.507				
1067	96.511				
1068	96.529				
1069	96.543				
1070	96.549				
1071	96.551				
1072	96.56				
1073	96.574				
1074	96.593				
1075	96.627				
1076	96.655				
1077	96.698				
1078	96.744				
1079	96.761				
1080	96.794				
1081	96.806				
1082	96.821				
1083	96.862				
1084	96.884				
1085	96.91				
1086	96.967				
1087	96.999				
1088	97.028				
1089	97.071				
1090	97.089				
1091	97.119				
1092	97.142				
1093	97.174				
1094	97.192				
1095	97.227				
1096	97.252				
1097	97.286				
1098	97.318				
1099	97.348				
1100	97.367				
