Wavelength	Transmittance	hex_color	Manufacturer	Name	Filter Number
300	0.0		Chroma		zet647nf0
301	0.0				
302	0.0				
303	0.0				
304	0.0				
305	0.0				
306	0.0				
307	0.0				
308	0.0				
309	0.0				
310	0.0				
311	0.0				
312	0.0				
313	0.0				
314	0.0				
315	0.0				
316	0.0				
317	0.0				
318	0.0				
319	0.0				
320	0.0				
321	0.0				
322	0.0				
323	0.0				
324	0.0				
325	0.0				
326	0.0				
327	0.0				
328	0.0				
329	0.0				
330	0.0				
331	0.0				
332	0.0				
333	0.0				
334	0.0				
335	0.0				
336	0.0				
337	0.0				
338	0.0				
339	0.0				
340	0.0				
341	0.0				
342	0.0				
343	0.0				
344	0.0				
345	0.0				
346	0.0				
347	0.0				
348	0.0				
349	0.0				
350	0.0				
351	0.0				
352	0.0				
353	0.0				
354	0.0				
355	0.0				
356	0.0				
357	0.0				
358	0.0				
359	0.0				
360	0.0				
361	0.0				
362	0.0				
363	0.0				
364	0.0				
365	0.0				
366	0.0				
367	0.0				
368	0.0				
369	0.0				
370	0.0				
371	0.0				
372	0.0				
373	0.0				
374	0.0				
375	0.0				
376	0.0				
377	0.0				
378	0.0				
379	0.0				
380	0.0				
381	0.0				
382	0.0				
383	0.0				
384	0.0				
385	0.0				
386	0.0				
387	0.0				
388	0.0				
389	0.0				
390	0.0				
391	0.0				
392	0.0				
393	0.0				
394	0.0				
395	0.0				
396	0.0				
397	0.012				
398	0.152				
399	0.614				
400	2.179				
401	3.416				
402	8.854				
403	38.001				
404	76.704				
405	83.485				
406	84.607				
407	85.714				
408	88.297				
409	91.311				
410	92.726				
411	92.013				
412	93.62				
413	95.217				
414	95.787				
415	96.209				
416	96.204				
417	95.856				
418	95.281				
419	94.332				
420	95.283				
421	96.102				
422	96.838				
423	95.742				
424	94.974				
425	95.96				
426	95.91				
427	94.828				
428	96.239				
429	95.601				
430	95.086				
431	95.89				
432	96.699				
433	96.274				
434	97.371				
435	97.116				
436	96.41				
437	95.925				
438	96.58				
439	97.303				
440	97.069				
441	96.644				
442	97.529				
443	97.479				
444	97.546				
445	97.417				
446	97.207				
447	96.685				
448	97.555				
449	97.502				
450	97.538				
451	97.088				
452	97.84				
453	98.155				
454	97.973				
455	97.538				
456	97.505				
457	97.217				
458	97.335				
459	97.976				
460	98.206				
461	98.256				
462	97.64				
463	97.527				
464	97.965				
465	97.617				
466	97.919				
467	98.053				
468	97.96				
469	98.359				
470	98.199				
471	98.342				
472	98.286				
473	98.211				
474	98.449				
475	98.387				
476	98.305				
477	98.227				
478	97.818				
479	97.265				
480	97.954				
481	98.401				
482	98.37				
483	98.408				
484	98.146				
485	98.374				
486	98.307				
487	98.249				
488	98.524				
489	98.445				
490	98.588				
491	98.322				
492	98.054				
493	98.349				
494	98.618				
495	98.688				
496	98.509				
497	98.313				
498	98.415				
499	98.108				
500	98.265				
501	98.448				
502	98.475				
503	98.515				
504	98.307				
505	98.116				
506	98.349				
507	98.582				
508	98.442				
509	98.535				
510	98.444				
511	98.619				
512	98.109				
513	98.359				
514	98.498				
515	98.517				
516	98.474				
517	98.826				
518	98.518				
519	98.687				
520	98.531				
521	98.307				
522	98.592				
523	98.736				
524	98.456				
525	98.444				
526	98.638				
527	98.362				
528	98.494				
529	98.522				
530	98.454				
531	98.232				
532	98.419				
533	98.607				
534	98.769				
535	98.671				
536	98.677				
537	98.757				
538	98.514				
539	98.213				
540	98.418				
541	98.706				
542	98.381				
543	98.439				
544	98.787				
545	98.672				
546	98.12				
547	98.577				
548	98.698				
549	98.221				
550	98.196				
551	98.57				
552	98.858				
553	98.268				
554	98.47				
555	98.635				
556	98.764				
557	98.59				
558	98.798				
559	98.594				
560	98.181				
561	98.602				
562	98.706				
563	98.441				
564	97.967				
565	98.454				
566	98.704				
567	98.472				
568	98.122				
569	98.43				
570	98.759				
571	98.437				
572	98.632				
573	98.595				
574	98.614				
575	98.363				
576	98.607				
577	98.847				
578	98.769				
579	98.665				
580	98.932				
581	98.773				
582	98.681				
583	98.881				
584	98.706				
585	98.665				
586	98.736				
587	98.674				
588	98.696				
589	98.686				
590	98.551				
591	98.535				
592	98.249				
593	97.965				
594	98.243				
595	98.71				
596	98.238				
597	97.441				
598	97.529				
599	98.343				
600	98.494				
601	98.018				
602	97.758				
603	98.382				
604	98.311				
605	97.89				
606	97.737				
607	98.241				
608	98.226				
609	96.858				
610	96.666				
611	97.901				
612	98.063				
613	96.454				
614	95.842				
615	97.111				
616	97.843				
617	96.817				
618	96.136				
619	97.318				
620	97.464				
621	96.178				
622	96.438				
623	97.76				
624	96.376				
625	94.186				
626	95.717				
627	96.006				
628	93.481				
629	92.482				
630	74.079				
631	31.795				
632	3.241				
633	0.585				
634	0.076				
635	0.016				
636	0.004				
637	0.001				
638	0.001				
639	0.0				
640	0.0				
641	0.0				
642	0.0				
643	0.0				
644	0.0				
645	0.0				
646	0.0				
647	0.0				
648	0.0				
649	0.0				
650	0.0				
651	0.0				
652	0.0				
653	0.0				
654	0.0				
655	0.0				
656	0.0				
657	0.001				
658	0.001				
659	0.004				
660	0.013				
661	0.049				
662	0.264				
663	1.998				
664	15.802				
665	51.166				
666	76.243				
667	90.528				
668	93.958				
669	95.01				
670	96.954				
671	97.77				
672	97.768				
673	98.207				
674	98.439				
675	98.355				
676	98.148				
677	98.403				
678	98.46				
679	98.459				
680	98.267				
681	98.348				
682	98.286				
683	98.058				
684	97.869				
685	97.986				
686	98.406				
687	98.341				
688	98.397				
689	98.079				
690	98.08				
691	98.374				
692	98.507				
693	98.377				
694	98.071				
695	97.951				
696	98.308				
697	98.28				
698	98.6				
699	98.214				
700	98.115				
701	98.122				
702	97.971				
703	98.278				
704	98.607				
705	98.517				
706	98.186				
707	98.242				
708	98.377				
709	98.393				
710	98.275				
711	98.384				
712	98.564				
713	98.725				
714	98.566				
715	98.963				
716	98.486				
717	98.383				
718	98.527				
719	98.397				
720	98.854				
721	98.529				
722	98.248				
723	97.79				
724	98.018				
725	98.381				
726	98.923				
727	98.852				
728	98.564				
729	98.306				
730	97.901				
731	97.915				
732	98.289				
733	98.703				
734	98.702				
735	98.49				
736	98.646				
737	98.374				
738	98.566				
739	98.599				
740	98.607				
741	98.869				
742	98.804				
743	98.672				
744	98.923				
745	98.994				
746	98.853				
747	98.601				
748	98.925				
749	98.423				
750	98.641				
751	98.892				
752	98.879				
753	98.883				
754	98.844				
755	98.855				
756	99.009				
757	98.869				
758	99.216				
759	99.146				
760	99.18				
761	98.986				
762	98.797				
763	98.858				
764	98.93				
765	98.702				
766	98.272				
767	98.315				
768	97.978				
769	98.472				
770	98.766				
771	99.506				
772	98.72				
773	97.916				
774	96.765				
775	95.753				
776	95.483				
777	96.302				
778	97.672				
779	99.13				
780	98.811				
781	98.282				
782	96.995				
783	96.135				
784	95.883				
785	96.434				
786	97.997				
787	98.857				
788	98.46				
789	97.629				
790	96.458				
791	95.544				
792	95.979				
793	97.306				
794	98.49				
795	98.621				
796	97.302				
797	93.919				
798	91.119				
799	90.28				
800	90.666				
801	94.116				
802	96.816				
803	99.647				
804	97.807				
805	92.923				
806	88.025				
807	84.289				
808	83.195				
809	85.806				
810	91.501				
811	97.504				
812	98.159				
813	94.474				
814	87.32				
815	81.546				
816	77.419				
817	77.88				
818	83.196				
819	89.955				
820	96.719				
821	98.099				
822	92.576				
823	82.675				
824	75.467				
825	71.67				
826	73.318				
827	78.496				
828	87.517				
829	95.764				
830	95.761				
831	87.881				
832	75.933				
833	66.317				
834	61.69				
835	62.808				
836	68.059				
837	78.505				
838	90.381				
839	95.934				
840	87.89				
841	73.639				
842	61.725				
843	54.436				
844	52.92				
845	55.832				
846	64.574				
847	78.292				
848	91.379				
849	94.973				
850	81.769				
851	67.085				
852	56.015				
853	50.203				
854	49.926				
855	54.338				
856	63.737				
857	79.043				
858	92.059				
859	91.39				
860	78.442				
861	62.333				
862	51.993				
863	46.808				
864	46.42				
865	51.35				
866	62.386				
867	76.839				
868	89.987				
869	90.792				
870	75.617				
871	59.047				
872	48.186				
873	42.774				
874	41.936				
875	45.493				
876	54.533				
877	69.544				
878	85.234				
879	90.229				
880	76.282				
881	59.534				
882	46.472				
883	39.812				
884	37.693				
885	39.346				
886	45.855				
887	57.97				
888	74.634				
889	87.329				
890	83.925				
891	66.404				
892	50.705				
893	41.167				
894	36.582				
895	35.423				
896	38.392				
897	46.19				
898	59.035				
899	75.512				
900	85.743				
