Wavelength	Transmittance	hex_color	Manufacturer	Name	Filter Number
351	0.0		Chroma		69002bs
352	0.0				
353	0.0				
354	0.0				
355	0.0				
356	0.0				
357	0.0				
358	0.0				
359	0.0				
360	0.0				
361	0.0				
362	0.0				
363	0.0				
364	0.0				
365	0.0				
366	0.0				
367	0.0				
368	0.0				
369	0.0				
370	0.0				
371	0.0				
372	0.0				
373	0.0				
374	0.0				
375	0.0				
376	0.0				
377	0.0				
378	0.0				
379	0.0				
380	0.0				
381	0.0				
382	0.0				
383	0.031				
384	0.0				
385	0.0				
386	0.0				
387	0.305				
388	0.242				
389	0.13				
390	0.025				
391	0.098				
392	0.308				
393	0.39				
394	0.09				
395	0.022				
396	0.063				
397	0.0				
398	0.02				
399	0.19				
400	0.499				
401	0.377				
402	0.105				
403	0.068				
404	0.082				
405	0.128				
406	0.186				
407	0.331				
408	0.512				
409	0.825				
410	1.081				
411	1.172				
412	1.218				
413	1.518				
414	2.566				
415	6.052				
416	16.49				
417	35.563				
418	59.833				
419	83.412				
420	93.412				
421	93.874				
422	94.612				
423	95.808				
424	96.011				
425	96.32				
426	97.275				
427	97.533				
428	97.339				
429	97.271				
430	97.404				
431	97.332				
432	97.44				
433	97.631				
434	97.749				
435	97.348				
436	96.738				
437	96.407				
438	96.526				
439	96.888				
440	97.249				
441	97.448				
442	97.314				
443	97.573				
444	97.818				
445	97.577				
446	96.812				
447	95.545				
448	94.775				
449	94.951				
450	95.888				
451	96.964				
452	97.417				
453	97.639				
454	97.53				
455	97.667				
456	97.707				
457	97.918				
458	97.84				
459	97.72				
460	97.909				
461	98.402				
462	98.482				
463	98.874				
464	97.951				
465	97.131				
466	96.574				
467	95.922				
468	95.069				
469	93.74				
470	91.613				
471	86.169				
472	76.346				
473	65.81				
474	58.172				
475	49.987				
476	36.272				
477	20.641				
478	10.133				
479	5.098				
480	2.727				
481	1.632				
482	1.063				
483	0.749				
484	0.564				
485	0.449				
486	0.384				
487	0.334				
488	0.313				
489	0.304				
490	0.307				
491	0.318				
492	0.353				
493	0.402				
494	0.482				
495	0.614				
496	0.818				
497	1.123				
498	1.644				
499	2.563				
500	4.191				
501	7.273				
502	12.658				
503	21.117				
504	31.982				
505	42.508				
506	51.621				
507	62.651				
508	78.315				
509	92.474				
510	98.201				
511	98.682				
512	98.658				
513	98.931				
514	98.316				
515	97.57				
516	96.657				
517	97.15				
518	97.843				
519	98.424				
520	98.35				
521	97.762				
522	97.333				
523	97.327				
524	97.777				
525	98.742				
526	98.967				
527	98.918				
528	98.433				
529	98.062				
530	97.901				
531	98.226				
532	98.473				
533	98.446				
534	98.387				
535	97.957				
536	97.598				
537	97.097				
538	97.197				
539	97.561				
540	97.884				
541	98.269				
542	98.726				
543	98.758				
544	98.637				
545	98.523				
546	97.661				
547	96.22				
548	94.544				
549	93.439				
550	91.091				
551	85.943				
552	75.119				
553	61.9				
554	47.419				
555	31.994				
556	19.324				
557	10.956				
558	6.397				
559	3.87				
560	2.455				
561	1.676				
562	1.205				
563	0.9				
564	0.707				
565	0.573				
566	0.479				
567	0.423				
568	0.375				
569	0.345				
570	0.326				
571	0.314				
572	0.316				
573	0.323				
574	0.339				
575	0.372				
576	0.406				
577	0.464				
578	0.543				
579	0.652				
580	0.809				
581	1.045				
582	1.386				
583	1.911				
584	2.727				
585	4.084				
586	6.292				
587	10.07				
588	15.981				
589	24.561				
590	34.545				
591	43.286				
592	49.016				
593	52.356				
594	56.273				
595	64.861				
596	78.327				
597	90.951				
598	96.165				
599	96.516				
600	95.972				
601	96.442				
602	98.383				
603	98.558				
604	98.34				
605	97.323				
606	96.185				
607	95.45				
608	95.427				
609	96.211				
610	97.208				
611	98.263				
612	99.109				
613	99.519				
614	99.141				
615	98.568				
616	97.997				
617	97.87				
618	97.759				
619	97.864				
620	98.108				
621	98.543				
622	99.033				
623	99.432				
624	99.567				
625	99.079				
626	98.805				
627	98.217				
628	97.846				
629	97.36				
630	96.9				
631	96.816				
632	97.049				
633	97.521				
634	97.684				
635	97.741				
636	97.633				
637	97.548				
638	97.368				
639	97.156				
640	96.941				
641	96.975				
642	97.025				
643	97.713				
644	97.756				
645	98.15				
646	99.076				
647	99.346				
648	99.391				
649	99.3				
650	98.837				
651	98.521				
652	98.102				
653	97.687				
654	97.27				
655	97.144				
656	97.147				
657	97.21				
658	97.261				
659	97.47				
660	97.748				
661	98.117				
662	98.342				
663	98.515				
664	98.464				
665	98.482				
666	98.366				
667	98.159				
668	97.835				
669	97.628				
670	97.475				
671	97.395				
672	97.61				
673	97.574				
674	97.744				
675	97.809				
676	97.72				
677	97.856				
678	97.698				
679	97.577				
680	97.378				
681	97.102				
682	96.949				
683	97.104				
684	97.03				
685	97.101				
686	97.181				
687	97.276				
688	97.392				
689	97.577				
690	97.682				
691	97.704				
692	97.603				
693	97.43				
694	97.221				
695	96.891				
696	96.675				
697	96.533				
698	96.398				
699	96.355				
700	96.194				
701	96.322				
702	96.514				
703	96.746				
704	96.989				
705	97.158				
706	97.246				
707	97.319				
708	97.372				
709	97.268				
710	97.124				
711	96.85				
712	96.712				
713	96.487				
714	96.353				
715	96.283				
716	96.405				
717	96.368				
718	96.57				
719	96.891				
720	97.071				
721	97.08				
722	97.063				
723	97.061				
724	96.953				
725	96.61				
726	96.347				
727	96.017				
728	95.76				
729	95.56				
730	95.541				
731	95.653				
732	95.791				
733	96.225				
734	96.672				
735	96.725				
736	96.836				
737	97.043				
738	97.122				
739	96.977				
740	96.742				
741	96.496				
742	96.141				
743	95.772				
744	95.596				
745	95.298				
746	95.553				
747	95.618				
748	95.898				
749	96.108				
750	96.569				
751	0.0				
