Wavelength	Transmittance	hex_color	Manufacturer	Name	Filter Number
350	0.0		Chroma		89402bs
351	0.0				
352	0.0				
353	0.0				
354	0.004				
355	0.032				
356	0.067				
357	0.061				
358	0.058				
359	0.169				
360	0.509				
361	0.732				
362	0.557				
363	0.318				
364	0.317				
365	0.568				
366	1.276				
367	2.49				
368	3.613				
369	4.414				
370	5.145				
371	4.69				
372	2.533				
373	0.869				
374	0.289				
375	0.199				
376	0.235				
377	0.527				
378	1.248				
379	1.858				
380	1.576				
381	1.007				
382	1.043				
383	1.43				
384	1.485				
385	1.04				
386	0.699				
387	0.883				
388	1.076				
389	0.934				
390	0.604				
391	0.354				
392	0.251				
393	0.299				
394	0.363				
395	0.411				
396	0.348				
397	0.213				
398	0.143				
399	0.117				
400	0.107				
401	0.1				
402	0.132				
403	0.178				
404	0.286				
405	0.512				
406	1.071				
407	2.299				
408	4.502				
409	8.476				
410	14.348				
411	23.121				
412	33.896				
413	47.033				
414	59.883				
415	74.107				
416	86.661				
417	94.734				
418	98.087				
419	98.112				
420	98.235				
421	98.421				
422	98.53				
423	98.374				
424	98.12				
425	97.925				
426	97.675				
427	97.95				
428	98.254				
429	98.56				
430	98.478				
431	98.529				
432	98.524				
433	98.581				
434	98.535				
435	98.534				
436	98.373				
437	98.39				
438	98.569				
439	98.461				
440	98.279				
441	98.104				
442	97.905				
443	97.708				
444	97.029				
445	96.736				
446	96.355				
447	96.547				
448	96.746				
449	97.269				
450	97.29				
451	96.17				
452	92.238				
453	82.774				
454	69.95				
455	57.463				
456	45.777				
457	34.101				
458	22.438				
459	13.023				
460	7.365				
461	4.389				
462	2.711				
463	1.881				
464	1.405				
465	1.13				
466	0.996				
467	0.939				
468	0.956				
469	1.095				
470	1.36				
471	1.832				
472	2.351				
473	2.67				
474	2.401				
475	1.719				
476	1.115				
477	0.695				
478	0.489				
479	0.36				
480	0.295				
481	0.259				
482	0.234				
483	0.226				
484	0.225				
485	0.239				
486	0.259				
487	0.298				
488	0.367				
489	0.468				
490	0.609				
491	0.87				
492	1.276				
493	2.148				
494	3.655				
495	6.565				
496	12.076				
497	21.105				
498	33.16				
499	43.886				
500	49.89				
501	53.94				
502	58.349				
503	67.59				
504	79.673				
505	90.718				
506	96.043				
507	97.081				
508	96.683				
509	97.052				
510	97.308				
511	97.6				
512	97.777				
513	97.906				
514	98.103				
515	97.949				
516	97.629				
517	97.504				
518	97.653				
519	97.993				
520	97.89				
521	97.829				
522	98.039				
523	97.963				
524	98.009				
525	98.083				
526	98.032				
527	98.076				
528	97.953				
529	97.711				
530	96.914				
531	94.588				
532	90.217				
533	83.123				
534	72.818				
535	60.915				
536	48.246				
537	36.341				
538	25.374				
539	17.458				
540	11.624				
541	7.948				
542	5.6				
543	3.929				
544	2.95				
545	2.243				
546	1.805				
547	1.466				
548	1.239				
549	1.085				
550	0.982				
551	0.916				
552	0.866				
553	0.856				
554	0.865				
555	0.898				
556	0.954				
557	1.042				
558	1.174				
559	1.342				
560	1.607				
561	1.976				
562	2.499				
563	3.231				
564	4.463				
565	6.241				
566	8.882				
567	12.877				
568	18.449				
569	26.11				
570	34.378				
571	42.732				
572	48.707				
573	53.868				
574	59.443				
575	66.436				
576	76.365				
577	85.99				
578	92.305				
579	94.356				
580	94.303				
581	94.371				
582	94.902				
583	95.815				
584	96.876				
585	97.184				
586	96.816				
587	96.795				
588	96.424				
589	96.122				
590	96.283				
591	96.553				
592	97.056				
593	98.092				
594	97.87				
595	98.158				
596	98.043				
597	97.451				
598	97.278				
599	97.129				
600	97.209				
601	97.913				
602	99.383				
603	98.672				
604	98.455				
605	97.955				
606	97.852				
607	97.795				
608	96.975				
609	95.316				
610	91.308				
611	82.186				
612	70.647				
613	59.074				
614	45.926				
615	35.304				
616	26.65				
617	19.701				
618	14.44				
619	10.626				
620	7.986				
621	6.179				
622	4.807				
623	3.846				
624	3.148				
625	2.671				
626	2.283				
627	1.996				
628	1.767				
629	1.603				
630	1.472				
631	1.374				
632	1.309				
633	1.256				
634	1.223				
635	1.207				
636	1.21				
637	1.227				
638	1.267				
639	1.322				
640	1.403				
641	1.496				
642	1.611				
643	1.777				
644	1.972				
645	2.24				
646	2.558				
647	2.988				
648	3.545				
649	4.307				
650	5.227				
651	6.423				
652	8.108				
653	10.295				
654	13.312				
655	17.031				
656	21.701				
657	27.889				
658	34.152				
659	41.541				
660	49.568				
661	57.811				
662	66.627				
663	76.831				
664	86.151				
665	92.733				
666	96.252				
667	96.537				
668	96.086				
669	95.446				
670	95.506				
671	95.958				
672	96.508				
673	97.099				
674	98.02				
675	98.608				
676	98.923				
677	98.785				
678	98.635				
679	98.181				
680	98.005				
681	97.6				
682	97.731				
683	97.735				
684	98.228				
685	98.192				
686	98.403				
687	98.689				
688	98.691				
689	98.497				
690	98.712				
691	98.369				
692	97.648				
693	97.998				
694	98.111				
695	97.815				
696	97.843				
697	98.3				
698	98.286				
699	98.443				
700	98.479				
701	98.84				
702	98.92				
703	98.871				
704	98.486				
705	98.583				
706	98.007				
707	98.088				
708	97.812				
709	97.373				
710	97.645				
711	97.676				
712	97.929				
713	98.199				
714	98.315				
715	98.576				
716	98.183				
717	98.387				
718	98.289				
719	98.186				
720	98.283				
721	97.969				
722	97.194				
723	96.144				
724	93.956				
725	91.006				
726	86.705				
727	81.882				
728	76.432				
729	71.541				
730	66.901				
731	62.748				
732	58.911				
733	55.452				
734	52.369				
735	48.941				
736	45.374				
737	42.322				
738	38.861				
739	35.767				
740	32.925				
741	30.246				
742	28.294				
743	27.1				
744	26.794				
745	27.59				
746	29.146				
747	30.605				
748	29.637				
749	25.795				
750	21.355				
751	18.226				
752	17.21				
753	17.378				
754	18.379				
755	19.995				
756	22.288				
757	24.987				
758	27.402				
759	28.23				
760	26.731				
761	23.087				
762	17.867				
763	13.16				
764	9.185				
765	6.441				
766	4.58				
767	3.338				
768	2.449				
769	1.849				
770	1.441				
771	1.147				
772	0.914				
773	0.755				
774	0.629				
775	0.523				
776	0.437				
777	0.379				
778	0.328				
779	0.287				
780	0.251				
781	0.224				
782	0.202				
783	0.182				
784	0.167				
785	0.153				
786	0.139				
787	0.137				
788	0.124				
789	0.113				
790	0.112				
791	0.108				
792	0.1				
793	0.095				
794	0.095				
795	0.091				
796	0.079				
797	0.072				
798	0.073				
799	0.077				
800	0.073				
801	0.073				
802	0.072				
803	0.075				
804	0.072				
805	0.078				
806	0.078				
807	0.076				
808	0.082				
809	0.084				
810	0.094				
811	0.096				
812	0.1				
813	0.108				
814	0.113				
815	0.124				
816	0.132				
817	0.149				
818	0.166				
819	0.184				
820	0.212				
821	0.239				
822	0.284				
823	0.414				
824	0.66				
825	1.164				
826	2.239				
827	3.415				
828	3.694				
829	2.776				
830	2.681				
831	4.422				
832	8.003				
833	13.983				
834	20.165				
835	21.457				
836	15.664				
837	7.686				
838	3.677				
839	2.035				
840	1.305				
841	0.906				
842	0.675				
843	0.514				
844	0.405				
845	0.335				
846	0.275				
847	0.228				
848	0.196				
849	0.165				
850	0.146				
851	0.134				
852	0.118				
853	0.107				
854	0.095				
855	0.09				
856	0.078				
857	0.07				
858	0.071				
859	0.062				
860	0.061				
861	0.054				
862	0.051				
863	0.051				
864	0.047				
865	0.045				
866	0.049				
867	0.042				
868	0.043				
869	0.042				
870	0.038				
871	0.04				
872	0.04				
873	0.04				
874	0.039				
875	0.044				
876	0.047				
877	0.039				
878	0.044				
879	0.041				
880	0.046				
881	0.044				
882	0.047				
883	0.048				
884	0.054				
885	0.059				
886	0.06				
887	0.063				
888	0.068				
889	0.068				
890	0.076				
891	0.085				
892	0.093				
893	0.098				
894	0.111				
895	0.122				
896	0.137				
897	0.149				
898	0.17				
899	0.192				
900	0.231				
