Wavelength	Transmittance	hex_color	Manufacturer	Name	Filter Number
300	0.0		Chroma		zet561topnotch0
301	0.0				
302	0.0				
303	0.0				
304	0.0				
305	0.0				
306	0.0				
307	0.0				
308	0.0				
309	0.0				
310	0.0				
311	0.001				
312	0.0				
313	0.0				
314	0.0				
315	0.0				
316	0.0				
317	0.0				
318	0.0				
319	0.0				
320	0.0				
321	0.0				
322	0.0				
323	0.001				
324	0.012				
325	0.008				
326	0.001				
327	0.058				
328	0.031				
329	0.004				
330	0.003				
331	0.002				
332	0.0				
333	0.0				
334	0.0				
335	0.0				
336	0.0				
337	0.0				
338	0.0				
339	0.003				
340	0.005				
341	0.0				
342	0.0				
343	0.001				
344	0.005				
345	0.013				
346	0.033				
347	0.191				
348	5.377				
349	54.516				
350	83.629				
351	90.354				
352	90.466				
353	90.024				
354	90.992				
355	90.334				
356	89.222				
357	89.005				
358	87.131				
359	87.389				
360	89.973				
361	91.299				
362	89.476				
363	89.928				
364	92.26				
365	91.408				
366	91.706				
367	92.677				
368	92.149				
369	90.822				
370	90.591				
371	92.233				
372	93.473				
373	93.158				
374	92.985				
375	94.048				
376	93.886				
377	93.389				
378	93.477				
379	94.47				
380	95.13				
381	94.885				
382	93.09				
383	92.87				
384	93.929				
385	95.222				
386	95.853				
387	95.718				
388	95.795				
389	94.393				
390	91.955				
391	89.946				
392	89.206				
393	91.628				
394	94.131				
395	94.426				
396	93.767				
397	92.286				
398	92.807				
399	93.534				
400	93.278				
401	93.336				
402	93.329				
403	94.757				
404	96.017				
405	96.601				
406	95.891				
407	94.409				
408	93.572				
409	93.338				
410	95.306				
411	96.208				
412	95.081				
413	94.633				
414	95.628				
415	95.68				
416	95.135				
417	93.335				
418	90.084				
419	88.247				
420	90.224				
421	92.866				
422	95.111				
423	94.662				
424	92.934				
425	92.204				
426	92.503				
427	94.115				
428	94.945				
429	95.812				
430	95.992				
431	95.218				
432	94.917				
433	96.463				
434	97.16				
435	97.174				
436	96.604				
437	95.162				
438	94.606				
439	93.891				
440	94.594				
441	95.67				
442	95.988				
443	95.498				
444	95.382				
445	95.481				
446	96.017				
447	96.1				
448	95.268				
449	95.952				
450	95.249				
451	94.079				
452	93.607				
453	93.691				
454	95.713				
455	96.235				
456	96.714				
457	97.076				
458	97.468				
459	97.081				
460	97.015				
461	96.179				
462	97.147				
463	96.888				
464	96.986				
465	96.718				
466	95.684				
467	95.86				
468	95.909				
469	97.072				
470	97.348				
471	97.836				
472	97.127				
473	95.672				
474	94.313				
475	92.848				
476	93.584				
477	94.191				
478	95.799				
479	96.17				
480	96.792				
481	96.67				
482	95.579				
483	96.096				
484	95.336				
485	96.082				
486	96.179				
487	97.389				
488	97.429				
489	97.255				
490	96.28				
491	95.697				
492	94.832				
493	94.844				
494	94.581				
495	96.548				
496	96.602				
497	97.029				
498	96.459				
499	95.955				
500	96.032				
501	95.902				
502	95.217				
503	95.999				
504	95.947				
505	97.043				
506	96.653				
507	96.876				
508	96.046				
509	95.317				
510	95.125				
511	95.321				
512	95.375				
513	96.055				
514	96.582				
515	97.073				
516	96.993				
517	96.812				
518	95.657				
519	94.579				
520	94.391				
521	94.7				
522	95.089				
523	95.343				
524	96.582				
525	96.17				
526	96.051				
527	94.991				
528	93.552				
529	94.045				
530	93.806				
531	94.347				
532	94.116				
533	95.49				
534	95.357				
535	95.936				
536	96.079				
537	95.512				
538	95.477				
539	93.789				
540	93.032				
541	92.891				
542	93.699				
543	93.717				
544	95.211				
545	96.67				
546	96.853				
547	96.145				
548	95.459				
549	93.74				
550	90.71				
551	90.493				
552	46.093				
553	3.557				
554	0.064				
555	0.003				
556	0.0				
557	0.0				
558	0.0				
559	0.0				
560	0.0				
561	0.0				
562	0.0				
563	0.0				
564	0.0				
565	0.0				
566	0.0				
567	0.0				
568	0.002				
569	0.022				
570	0.746				
571	23.761				
572	81.046				
573	93.207				
574	94.871				
575	94.989				
576	95.355				
577	94.051				
578	95.589				
579	94.789				
580	94.615				
581	95.733				
582	95.262				
583	95.323				
584	96.185				
585	95.848				
586	96.432				
587	96.355				
588	95.754				
589	96.03				
590	94.507				
591	94.083				
592	94.963				
593	93.89				
594	93.463				
595	94.781				
596	94.357				
597	94.196				
598	95.389				
599	95.193				
600	95.249				
601	96.105				
602	95.326				
603	95.622				
604	96.056				
605	94.168				
606	94.142				
607	95.657				
608	94.681				
609	94.244				
610	96.058				
611	96.578				
612	96.152				
613	97.146				
614	96.826				
615	95.868				
616	96.343				
617	95.996				
618	94.442				
619	95.058				
620	95.799				
621	94.632				
622	94.67				
623	96.01				
624	94.871				
625	94.454				
626	95.682				
627	95.781				
628	94.463				
629	95.062				
630	95.965				
631	94.678				
632	94.584				
633	95.823				
634	95.44				
635	94.234				
636	94.779				
637	96.05				
638	95.226				
639	95.437				
640	96.665				
641	97.14				
642	96.938				
643	97.346				
644	97.355				
645	96.806				
646	96.765				
647	96.79				
648	95.657				
649	94.728				
650	95.506				
651	95.363				
652	94.035				
653	93.687				
654	95.082				
655	95.353				
656	94.572				
657	94.898				
658	96.357				
659	96.665				
660	96.201				
661	96.785				
662	97.607				
663	97.154				
664	96.548				
665	97.217				
666	97.291				
667	96.467				
668	96.163				
669	96.695				
670	96.972				
671	96.363				
672	96.305				
673	97.065				
674	96.911				
675	95.745				
676	96.028				
677	96.392				
678	95.7				
679	94.838				
680	94.787				
681	95.872				
682	95.261				
683	94.326				
684	94.144				
685	95.324				
686	95.33				
687	94.057				
688	93.797				
689	94.495				
690	95.456				
691	94.424				
692	94.247				
693	95.519				
694	96.605				
695	96.894				
696	97.022				
697	97.155				
698	97.653				
699	97.722				
700	97.086				
701	97.213				
702	98.176				
703	97.278				
704	96.292				
705	96.123				
706	96.71				
707	96.913				
708	96.067				
709	95.578				
710	96.609				
711	97.244				
712	96.52				
713	95.967				
714	96.501				
715	97.241				
716	97.137				
717	96.716				
718	96.348				
719	96.632				
720	96.959				
721	96.492				
722	95.711				
723	95.438				
724	96.181				
725	96.461				
726	95.84				
727	95.258				
728	95.777				
729	96.512				
730	96.883				
731	96.573				
732	96.178				
733	97.069				
734	97.487				
735	97.577				
736	97.135				
737	96.876				
738	97.579				
739	97.734				
740	97.397				
741	96.18				
742	96.354				
743	97.025				
744	96.745				
745	96.259				
746	95.1				
747	95.569				
748	95.932				
749	95.65				
750	96.478				
751	95.208				
752	94.987				
753	96.16				
754	95.659				
755	95.399				
756	95.086				
757	95.702				
758	96.157				
759	96.111				
760	96.169				
761	96.252				
762	96.768				
763	97.1				
764	96.677				
765	96.792				
766	95.742				
767	96.804				
768	95.783				
769	96.339				
770	95.758				
771	96.276				
772	95.609				
773	96.154				
774	96.329				
775	95.714				
776	96.187				
777	96.401				
778	96.788				
779	96.822				
780	97.116				
781	97.194				
782	97.481				
783	97.138				
784	97.656				
785	97.744				
786	97.451				
787	96.696				
788	97.068				
789	96.935				
790	97.229				
791	96.972				
792	95.457				
793	96.138				
794	95.676				
795	96.381				
796	95.507				
797	95.568				
798	95.134				
799	95.858				
800	95.182				
801	95.608				
802	95.85				
803	95.917				
804	96.029				
805	96.291				
806	96.651				
807	97.035				
808	97.309				
809	97.413				
810	97.454				
811	97.501				
812	97.496				
813	97.508				
814	97.415				
815	97.233				
816	97.057				
817	97.025				
818	97.139				
819	97.189				
820	97.109				
821	96.978				
822	96.844				
823	96.689				
824	96.637				
825	96.606				
826	96.622				
827	96.618				
828	96.491				
829	96.341				
830	96.205				
831	96.284				
832	96.42				
833	96.552				
834	96.684				
835	96.683				
836	96.593				
837	96.502				
838	96.526				
839	96.592				
840	96.685				
841	96.603				
842	96.349				
843	96.169				
844	96.21				
845	96.363				
846	96.359				
847	96.196				
848	95.799				
849	95.367				
850	95.188				
851	95.212				
852	95.521				
853	95.865				
854	95.877				
855	95.786				
856	95.652				
857	95.577				
858	95.707				
859	96.031				
860	96.35				
861	96.383				
862	96.22				
863	96.135				
864	96.256				
865	96.468				
866	96.709				
867	96.833				
868	96.618				
869	96.368				
870	96.322				
871	96.36				
872	96.503				
873	96.642				
874	96.541				
875	96.21				
876	95.782				
877	95.617				
878	95.716				
879	96.074				
880	96.548				
881	96.546				
882	96.217				
883	95.704				
884	95.457				
885	95.696				
886	96.064				
887	96.388				
888	96.612				
889	96.356				
890	95.695				
891	95.382				
892	95.545				
893	95.964				
894	96.513				
895	96.889				
896	96.796				
897	96.503				
898	96.255				
899	96.285				
900	96.705				
901	97.169				
902	97.466				
903	97.513				
904	97.366				
905	97.135				
906	97.135				
907	97.251				
908	97.346				
909	97.541				
910	97.365				
911	96.879				
912	96.321				
913	96.008				
914	96.159				
915	96.412				
916	96.746				
917	96.843				
918	96.439				
919	95.874				
920	95.347				
921	95.305				
922	95.711				
923	96.252				
924	96.775				
925	96.935				
926	96.68				
927	96.263				
928	95.938				
929	95.869				
930	96.185				
931	96.592				
932	96.865				
933	96.899				
934	96.598				
935	96.005				
936	95.482				
937	95.429				
938	95.678				
939	96.14				
940	96.535				
941	96.445				
942	96.014				
943	95.509				
944	95.191				
945	95.275				
946	95.67				
947	96.205				
948	96.612				
949	96.597				
950	96.268				
951	95.765				
952	95.246				
953	95.124				
954	95.427				
955	95.86				
956	96.181				
957	96.277				
958	96.061				
959	95.618				
960	95.142				
961	94.943				
962	95.124				
963	95.537				
964	96.072				
965	96.392				
966	96.347				
967	96.117				
968	95.834				
969	95.587				
970	95.661				
971	95.97				
972	96.408				
973	96.698				
974	96.761				
975	96.53				
976	96.038				
977	95.685				
978	95.577				
979	95.884				
980	96.401				
981	96.72				
982	96.593				
983	96.169				
984	95.661				
985	95.122				
986	94.808				
987	94.784				
988	95.099				
989	95.766				
990	96.425				
991	96.693				
992	96.545				
993	96.271				
994	95.82				
995	95.461				
996	95.488				
997	95.851				
998	96.517				
999	97.054				
1000	97.276				
1001	97.257				
1002	96.933				
1003	96.5				
1004	96.105				
1005	95.934				
1006	96.159				
1007	96.576				
1008	96.957				
1009	97.198				
1010	97.191				
1011	96.898				
1012	96.444				
1013	96.058				
1014	95.934				
1015	96.071				
1016	96.449				
1017	96.894				
1018	97.078				
1019	97.054				
1020	96.883				
1021	96.321				
1022	95.748				
1023	95.547				
1024	95.606				
1025	95.996				
1026	96.456				
1027	96.757				
1028	96.932				
1029	96.741				
1030	96.34				
1031	95.803				
1032	95.335				
1033	95.228				
1034	95.41				
1035	95.704				
1036	96.014				
1037	96.258				
1038	96.355				
1039	96.263				
1040	95.955				
1041	95.549				
1042	95.245				
1043	95.257				
1044	95.525				
1045	95.845				
1046	96.305				
1047	96.758				
1048	96.812				
1049	96.693				
1050	96.377				
1051	96.017				
1052	95.871				
1053	95.815				
1054	96.044				
1055	96.369				
1056	96.55				
1057	96.741				
1058	96.682				
1059	96.26				
1060	95.961				
1061	95.657				
1062	95.41				
1063	95.501				
1064	95.789				
1065	96.111				
1066	96.372				
1067	96.727				
1068	96.819				
1069	96.451				
1070	96.002				
1071	95.613				
1072	95.414				
1073	95.443				
1074	95.711				
1075	95.955				
1076	96.361				
1077	96.739				
1078	96.906				
1079	96.927				
1080	96.518				
1081	96.16				
1082	95.97				
1083	95.857				
1084	95.935				
1085	96.146				
1086	96.521				
1087	96.837				
1088	97.049				
1089	97.186				
1090	97.012				
1091	96.836				
1092	96.517				
1093	96.299				
1094	96.263				
1095	96.349				
1096	96.579				
1097	96.77				
1098	97.045				
1099	97.329				
1100					
