Wavelength	Transmittance	hex_color	Manufacturer	Name	Filter Number
300	0.0		Chroma		ET520LP
301	0.0				
302	0.0				
303	0.0				
304	0.0				
305	0.0				
306	0.0				
307	0.0				
308	0.0				
309	0.0				
310	0.0				
311	0.0				
312	0.0				
313	0.0				
314	0.0				
315	0.0				
316	0.0				
317	0.0				
318	0.0				
319	0.0				
320	0.0				
321	0.0				
322	0.0				
323	0.0				
324	0.0				
325	0.0				
326	0.0				
327	0.0				
328	0.0				
329	0.0				
330	0.0				
331	0.0				
332	0.0				
333	0.0				
334	0.0				
335	0.0				
336	0.0				
337	0.0				
338	0.0				
339	0.0				
340	0.0				
341	0.0				
342	0.0				
343	0.0				
344	0.0				
345	0.0				
346	0.0				
347	0.0				
348	0.0				
349	0.0				
350	0.0				
351	0.0				
352	0.0				
353	0.0				
354	0.0				
355	0.0				
356	0.0				
357	0.0				
358	0.0				
359	0.0				
360	0.0				
361	0.0				
362	0.0				
363	0.0				
364	0.0				
365	0.0				
366	0.0				
367	0.0				
368	0.0				
369	0.0				
370	0.0				
371	0.0				
372	0.0				
373	0.0				
374	0.0				
375	0.0				
376	0.0				
377	0.0				
378	0.0				
379	0.0				
380	0.0				
381	0.0				
382	0.0				
383	0.0				
384	0.0				
385	0.0				
386	0.0				
387	0.0				
388	0.0				
389	0.0				
390	0.0				
391	0.0				
392	0.0				
393	0.0				
394	0.0				
395	0.0				
396	0.0				
397	0.0				
398	0.0				
399	0.0				
400	0.0				
401	0.0				
402	0.0				
403	0.0				
404	0.0				
405	0.0				
406	0.0				
407	0.0				
408	0.0				
409	0.0				
410	0.0				
411	0.0				
412	0.0				
413	0.0				
414	0.0				
415	0.0				
416	0.0				
417	0.0				
418	0.0				
419	0.0				
420	0.0				
421	0.0				
422	0.0				
423	0.0				
424	0.0				
425	0.0				
426	0.0				
427	0.0				
428	0.0				
429	0.0				
430	0.0				
431	0.0				
432	0.0				
433	0.0				
434	0.0				
435	0.0				
436	0.0				
437	0.0				
438	0.0				
439	0.0				
440	0.0				
441	0.0				
442	0.0				
443	0.0				
444	0.0				
445	0.0				
446	0.0				
447	0.0				
448	0.0				
449	0.0				
450	0.0				
451	0.0				
452	0.0				
453	0.0				
454	0.0				
455	0.0				
456	0.0				
457	0.0				
458	0.0				
459	0.0				
460	0.0				
461	0.0				
462	0.0				
463	0.0				
464	0.0				
465	0.0				
466	0.0				
467	0.0				
468	0.0				
469	0.0				
470	0.0				
471	0.0				
472	0.0				
473	0.0				
474	0.0				
475	0.0				
476	0.0				
477	0.0				
478	0.0				
479	0.0				
480	0.0				
481	0.0				
482	0.0				
483	0.0				
484	0.0				
485	0.0				
486	0.0				
487	0.0				
488	0.0				
489	0.0				
490	0.0				
491	0.0				
492	0.0				
493	0.0				
494	0.0				
495	0.0				
496	0.0				
497	0.0				
498	0.0				
499	0.0				
500	0.0				
501	0.0				
502	0.0				
503	0.0				
504	0.0				
505	0.0				
506	0.0				
507	0.0				
508	0.0				
509	0.0				
510	0.0				
511	0.0				
512	0.0				
513	0.0				
514	0.0				
515	0.0				
516	0.0				
517	0.003				
518	0.025				
519	0.316				
520	6.96				
521	60.833				
522	95.731				
523	97.9				
524	98.154				
525	97.998				
526	98.402				
527	98.81				
528	98.811				
529	98.614				
530	98.337				
531	98.061				
532	98.231				
533	98.698				
534	98.84				
535	99.119				
536	98.956				
537	99.147				
538	99.204				
539	99.128				
540	99.103				
541	99.306				
542	99.009				
543	99.256				
544	99.211				
545	99.248				
546	99.247				
547	99.231				
548	99.07				
549	99.113				
550	99.291				
551	99.635				
552	99.349				
553	99.189				
554	98.961				
555	98.614				
556	98.69				
557	98.686				
558	98.904				
559	98.82				
560	98.777				
561	98.878				
562	99.24				
563	99.249				
564	98.892				
565	98.735				
566	99.185				
567	98.935				
568	99.213				
569	98.928				
570	98.955				
571	99.284				
572	99.141				
573	99.219				
574	98.96				
575	98.711				
576	98.929				
577	98.821				
578	98.644				
579	98.215				
580	98.442				
581	98.289				
582	98.091				
583	97.895				
584	97.952				
585	97.913				
586	97.744				
587	97.712				
588	97.542				
589	97.801				
590	97.634				
591	97.884				
592	97.989				
593	98.155				
594	98.048				
595	98.216				
596	98.184				
597	98.884				
598	98.981				
599	99.177				
600	99.129				
601	98.905				
602	98.794				
603	98.688				
604	98.327				
605	98.37				
606	98.162				
607	98.004				
608	97.909				
609	98.09				
610	98.242				
611	98.434				
612	98.829				
613	98.769				
614	98.707				
615	98.708				
616	98.593				
617	98.32				
618	98.073				
619	97.934				
620	97.751				
621	97.741				
622	97.903				
623	97.732				
624	97.853				
625	98.008				
626	98.099				
627	98.275				
628	98.432				
629	98.398				
630	98.34				
631	98.409				
632	98.148				
633	98.03				
634	98.013				
635	98.195				
636	98.286				
637	98.326				
638	98.403				
639	98.658				
640	98.583				
641	98.796				
642	98.929				
643	98.672				
644	98.529				
645	98.674				
646	98.701				
647	98.49				
648	98.789				
649	98.576				
650	98.644				
651	98.65				
652	98.721				
653	98.843				
654	98.923				
655	98.751				
656	98.955				
657	99.154				
658	98.882				
659	98.48				
660	98.659				
661	98.204				
662	98.088				
663	97.92				
664	98.063				
665	98.059				
666	98.181				
667	98.139				
668	98.4				
669	98.555				
670	98.676				
671	98.152				
672	98.443				
673	98.093				
674	97.791				
675	97.416				
676	97.18				
677	96.997				
678	96.507				
679	96.55				
680	96.66				
681	96.43				
682	96.461				
683	96.61				
684	96.944				
685	97.199				
686	97.315				
687	97.318				
688	97.052				
689	97.219				
690	96.673				
691	96.47				
692	96.22				
693	96.056				
694	95.222				
695	95.019				
696	94.821				
697	94.779				
698	94.925				
699	95.241				
700	95.593				
701	95.844				
702	96.004				
703	96.399				
704	97.016				
705	96.981				
706	97.248				
707	97.31				
708	97.285				
709	97.022				
710	96.632				
711	96.033				
712	95.919				
713	95.691				
714	95.236				
715	95.181				
716	94.863				
717	94.924				
718	95.648				
719	95.723				
720	95.823				
721	96.772				
722	97.177				
723	97.464				
724	97.738				
725	97.856				
726	97.722				
727	97.956				
728	97.767				
729	97.352				
730	97.112				
731	96.363				
732	96.013				
733	95.632				
734	95.232				
735	95.098				
736	94.819				
737	95.041				
738	95.079				
739	95.851				
740	95.566				
741	95.767				
742	97.024				
743	96.72				
744	97.903				
745	97.615				
746	98.124				
747	98.555				
748	98.249				
749	97.687				
750	97.195				
751	96.414				
752	96.249				
753	95.379				
754	94.761				
755	94.251				
756	93.267				
757	93.662				
758	93.256				
759	93.69				
760	92.998				
761	93.09				
762	93.707				
763	93.922				
764	94.615				
765	94.849				
766	94.813				
767	95.578				
768	96.209				
769	96.486				
770	96.577				
771	96.671				
772	95.394				
773	95.403				
774	93.942				
775	94.236				
776	93.365				
777	92.762				
778	92.17				
779	91.879				
780	91.188				
781	91.563				
782	90.557				
783	90.675				
784	91.26				
785	91.478				
786	90.848				
787	92.162				
788	92.479				
789	93.423				
790	93.106				
791	94.01				
792	94.565				
793	94.735				
794	94.287				
795	94.428				
796	94.343				
797	94.015				
798	94.012				
799	93.243				
800	93.006				
801	92.564				
802	92.036				
803	91.714				
804	91.377				
805	91.062				
806	90.987				
807	90.903				
808	90.968				
809	91.133				
810	91.431				
811	91.85				
812	92.318				
813	92.843				
814	93.333				
815	93.946				
816	94.536				
817	94.947				
818	95.395				
819	95.75				
820	95.974				
821	96.069				
822	96.081				
823	95.901				
824	95.648				
825	95.356				
826	95.016				
827	94.637				
828	94.241				
829	93.856				
830	93.482				
831	93.201				
832	92.995				
833	92.871				
834	92.862				
835	92.963				
836	93.076				
837	93.323				
838	93.81				
839	94.177				
840	94.617				
841	95.225				
842	95.704				
843	96.205				
844	96.681				
845	97.097				
846	97.47				
847	97.777				
848	97.856				
849	97.946				
850	97.863				
851	97.697				
852	97.402				
853	97.022				
854	96.633				
855	96.21				
856	95.721				
857	95.309				
858	94.875				
859	94.418				
860	94.036				
861	93.748				
862	93.517				
863	93.407				
864	93.416				
865	93.48				
866	93.632				
867	93.77				
868	94.025				
869	94.356				
870	94.685				
871	95.025				
872	95.358				
873	95.693				
874	96.024				
875	96.166				
876	96.325				
877	96.383				
878	96.337				
879	96.291				
880	96.07				
881	95.732				
882	95.378				
883	94.984				
884	94.49				
885	93.956				
886	93.417				
887	92.966				
888	92.401				
889	91.973				
890	91.614				
891	91.262				
892	91.037				
893	90.785				
894	90.621				
895	90.587				
896	90.624				
897	90.709				
898	90.801				
899	91.006				
900	91.222				
901	91.452				
902	91.772				
903	92.13				
904	92.3				
905	92.487				
906	92.704				
907	92.88				
908	92.952				
909	92.971				
910	92.943				
911	92.72				
912	92.555				
913	92.342				
914	92.021				
915	91.681				
916	91.316				
917	90.844				
918	90.495				
919	90.137				
920	89.676				
921	89.265				
922	88.922				
923	88.739				
924	88.485				
925	88.31				
926	88.127				
927	88.133				
928	88.108				
929	88.199				
930	88.34				
931	88.538				
932	88.826				
933	89.12				
934	89.38				
935	89.64				
936	90.025				
937	90.446				
938	90.76				
939	91.106				
940	91.357				
941	91.642				
942	91.835				
943	91.953				
944	92.083				
945	92.133				
946	91.981				
947	91.92				
948	91.842				
949	91.711				
950	91.496				
951	91.296				
952	90.99				
953	90.686				
954	90.357				
955	90.13				
956	89.907				
957	89.593				
958	89.327				
959	89.222				
960	89.226				
961	89.066				
962	89.043				
963	89.144				
964	89.275				
965	89.439				
966	89.612				
967	89.959				
968	90.251				
969	90.648				
970	90.99				
971	91.43				
972	91.826				
973	92.271				
974	92.748				
975	93.148				
976	93.612				
977	93.963				
978	94.214				
979	94.458				
980	94.802				
981	94.935				
982	95.012				
983	95.129				
984	95.094				
985	95.102				
986	95.039				
987	94.751				
988	94.547				
989	94.253				
990	93.965				
991	93.71				
992	93.383				
993	93.026				
994	92.724				
995	92.546				
996	92.223				
997	92.117				
998	91.888				
999	91.797				
1000	91.699				
1001	91.697				
1002	91.694				
1003	91.766				
1004	91.829				
1005	92.019				
1006	92.234				
1007	92.515				
1008	92.787				
1009	93.114				
1010	93.496				
1011	93.868				
1012	94.227				
1013	94.617				
1014	95.01				
1015	95.324				
1016	95.643				
1017	95.996				
1018	96.175				
1019	96.358				
1020	96.591				
1021	96.699				
1022	96.744				
1023	96.722				
1024	96.727				
1025	96.504				
1026	96.347				
1027	96.043				
1028	95.697				
1029	95.395				
1030	95.074				
1031	94.62				
1032	94.213				
1033	93.779				
1034	93.357				
1035	92.87				
1036	92.484				
1037	92.095				
1038	91.764				
1039	91.442				
1040	91.193				
1041	90.932				
1042	90.693				
1043	90.57				
1044	90.421				
1045	90.353				
1046	90.32				
1047	90.329				
1048	90.427				
1049	90.549				
1050	90.702				
1051	90.877				
1052	91.164				
1053	91.438				
1054	91.738				
1055	91.91				
1056	92.185				
1057	92.449				
1058	92.707				
1059	92.967				
1060	93.265				
1061	93.404				
1062	93.56				
1063	93.666				
1064	93.852				
1065	93.847				
1066	93.822				
1067	93.805				
1068	93.614				
1069	93.384				
1070	93.172				
1071	92.936				
1072	92.625				
1073	92.273				
1074	91.954				
1075	91.509				
1076	91.021				
1077	90.639				
1078	90.163				
1079	89.709				
1080	89.243				
1081	88.775				
1082	88.367				
1083	87.965				
1084	87.596				
1085	87.227				
1086	86.923				
1087	86.596				
1088	86.323				
1089	86.166				
1090	85.857				
1091	85.834				
1092	85.842				
1093	85.806				
1094	85.781				
1095	85.874				
1096	85.913				
1097	85.989				
1098	86.228				
1099	86.429				
1100	86.622				
