Wavelength	Transmittance	hex_color	Manufacturer	Name	Filter Number
300	4.132		Chroma		RET266/3x
301	0.987				
302	1.279				
303	13.024				
304	68.266				
305	9.995				
306	14.898				
307	2.487				
308	3.791				
309	66.595				
310	70.366				
311	28.172				
312	78.627				
313	75.839				
314	55.288				
315	86.05				
316	50.895				
317	96.327				
318	69.815				
319	84.477				
320	81.144				
321	57.155				
322	46.916				
323	74.287				
324	40.269				
325	41.753				
326	68.716				
327	33.76				
328	83.118				
329	81.484				
330	78.947				
331	38.753				
332	84.103				
333	83.97				
334	75.341				
335	46.294				
336	81.551				
337	57.407				
338	75.962				
339	75.203				
340	85.948				
341	51.86				
342	53.102				
343	89.91				
344	74.488				
345	76.82				
346	94.851				
347	45.935				
348	42.588				
349	80.747				
350	84.257				
351	90.006				
352	61.903				
353	61.292				
354	94.462				
355	96.947				
356	96.926				
357	73.394				
358	71.628				
359	92.289				
360	92.547				
361	99.038				
362	86.448				
363	77.673				
364	94.434				
365	87.962				
366	93.876				
367	87.834				
368	58.552				
369	69.361				
370	87.631				
371	62.12				
372	63.522				
373	87.902				
374	99.259				
375	89.053				
376	87.181				
377	97.325				
378	89.919				
379	90.99				
380	94.883				
381	78.799				
382	85.841				
383	98.961				
384	90.851				
385	98.923				
386	84.42				
387	70.455				
388	87.699				
389	93.459				
390	86.268				
391	97.06				
392	81.185				
393	75.39				
394	92.607				
395	73.524				
396	61.528				
397	77.661				
398	76.633				
399	61.254				
400	69.085				
401	90.043				
402	96.34				
403	93.585				
404	88.354				
405	90.988				
406	99.705				
407	92.299				
408	85.056				
409	91.174				
410	89.169				
411	80.225				
412	86.54				
413	99.284				
414	95.866				
415	94.127				
416	96.307				
417	84.109				
418	75.55				
419	83.989				
420	96.647				
421	95.389				
422	95.988				
423	99.667				
424	89.446				
425	79.984				
426	84.697				
427	93.381				
428	90.291				
429	88.497				
430	96.758				
431	95.477				
432	77.639				
433	67.88				
434	74.036				
435	91.725				
436	98.433				
437	86.785				
438	80.0				
439	85.023				
440	94.743				
441	97.565				
442	95.131				
443	94.807				
444	95.27				
445	93.4				
446	91.801				
447	92.739				
448	94.047				
449	94.124				
450	94.481				
451	95.207				
452	94.727				
453	94.07				
454	94.946				
455	95.631				
456	94.317				
457	93.436				
458	94.709				
459	94.992				
460	92.322				
461	90.863				
462	93.399				
463	96.027				
464	94.67				
465	93.379				
466	96.109				
467	98.145				
468	93.842				
469	89.231				
470	91.094				
471	94.967				
472	89.983				
473	80.666				
474	79.263				
475	87.937				
476	93.733				
477	82.242				
478	68.802				
479	66.368				
480	75.925				
481	91.383				
482	97.708				
483	94.293				
484	93.794				
485	97.851				
486	98.653				
487	94.052				
488	91.118				
489	93.02				
490	95.122				
491	92.218				
492	87.788				
493	87.84				
494	92.744				
495	97.017				
496	96.294				
497	94.233				
498	95.445				
499	98.327				
500	97.365				
501	92.338				
502	88.97				
503	90.354				
504	93.903				
505	94.266				
506	91.003				
507	89.217				
508	91.985				
509	97.023				
510	98.792				
511	96.102				
512	93.817				
513	95.033				
514	97.21				
515	95.27				
516	89.512				
517	85.554				
518	86.91				
519	92.246				
520	95.904				
521	93.942				
522	90.339				
523	90.81				
524	95.95				
525	99.223				
526	92.644				
527	80.136				
528	71.058				
529	69.214				
530	74.751				
531	85.72				
532	96.293				
533	99.763				
534	97.198				
535	94.452				
536	94.214				
537	95.341				
538	95.54				
539	94.192				
540	92.705				
541	92.446				
542	93.367				
543	94.369				
544	94.592				
545	94.267				
546	94.197				
547	94.705				
548	95.356				
549	95.542				
550	95.187				
551	94.773				
552	94.719				
553	94.934				
554	94.988				
555	94.659				
556	94.213				
557	94.095				
558	94.421				
559	94.832				
560	94.857				
561	94.429				
562	93.982				
563	94.001				
564	94.539				
565	95.141				
566	95.263				
567	94.825				
568	94.318				
569	94.328				
570	94.985				
571	95.809				
572	96.076				
573	95.463				
574	94.38				
575	93.602				
576	93.623				
577	94.304				
578	94.987				
579	94.993				
580	94.224				
581	93.28				
582	92.978				
583	93.794				
584	95.549				
585	97.397				
586	98.144				
587	96.942				
588	93.919				
589	90.138				
590	86.967				
591	85.507				
592	86.376				
593	89.601				
594	94.352				
595	98.649				
596	99.915				
597	96.959				
598	91.306				
599	85.804				
600	82.592				
601	82.55				
602	85.533				
603	90.42				
604	95.137				
605	97.546				
606	97.124				
607	95.355				
608	94.222				
609	94.774				
610	96.691				
611	98.494				
612	98.45				
613	96.014				
614	92.378				
615	89.401				
616	88.359				
617	89.507				
618	92.104				
619	94.655				
620	95.679				
621	94.8				
622	93.038				
623	91.893				
624	92.339				
625	94.397				
626	97.111				
627	98.941				
628	98.73				
629	96.648				
630	94.016				
631	92.25				
632	92.062				
633	93.263				
634	94.885				
635	95.646				
636	94.773				
637	92.614				
638	90.344				
639	89.144				
640	89.641				
641	91.74				
642	94.656				
643	97.156				
644	98.176				
645	97.557				
646	96.078				
647	94.811				
648	94.49				
649	95.206				
650	96.427				
651	97.253				
652	96.924				
653	95.331				
654	93.096				
655	91.142				
656	90.195				
657	90.532				
658	91.946				
659	93.841				
660	95.457				
661	96.231				
662	96.093				
663	95.446				
664	94.849				
665	94.669				
666	94.919				
667	95.302				
668	95.418				
669	95.061				
670	94.396				
671	93.897				
672	94.081				
673	95.218				
674	97.1				
675	98.946				
676	99.56				
677	97.935				
678	93.998				
679	88.76				
680	83.677				
681	79.945				
682	78.245				
683	78.829				
684	81.619				
685	86.165				
686	91.529				
687	96.314				
688	99.161				
689	99.552				
690	98.121				
691	96.134				
692	94.717				
693	94.449				
694	95.304				
695	96.734				
696	97.857				
697	97.831				
698	96.311				
699	93.664				
700	90.733				
701	88.384				
702	87.212				
703	87.447				
704	88.972				
705	91.353				
706	93.901				
707	95.866				
708	96.722				
709	96.442				
710	95.471				
711	94.461				
712	93.966				
713	94.267				
714	95.316				
715	96.764				
716	98.063				
717	98.664				
718	98.26				
719	96.941				
720	95.132				
721	93.388				
722	92.168				
723	91.724				
724	92.065				
725	92.978				
726	94.093				
727	94.985				
728	95.332				
729	95.035				
730	94.256				
731	93.33				
732	92.622				
733	92.406				
734	92.794				
735	93.721				
736	94.966				
737	96.206				
738	97.115				
739	97.472				
740	97.245				
741	96.586				
742	95.761				
743	95.041				
744	94.618				
745	94.56				
746	94.811				
747	95.222				
748	95.596				
749	95.767				
750	95.646				
751	95.258				
752	94.719				
753	94.196				
754	93.839				
755	93.742				
756	93.92				
757	94.311				
758	94.799				
759	95.248				
760	95.549				
761	95.65				
762	95.571				
763	95.387				
764	95.194				
765	95.069				
766	95.044				
767	95.093				
768	95.146				
769	95.114				
770	94.929				
771	94.579				
772	94.122				
773	93.681				
774	93.409				
775	93.449				
776	93.894				
777	94.754				
778	95.932				
779	97.224				
780	98.334				
781	98.937				
782	98.77				
783	97.728				
784	95.909				
785	93.591				
786	91.146				
787	88.939				
788	87.269				
789	86.332				
790	86.226				
791	86.954				
792	88.427				
793	90.468				
794	92.816				
795	95.144				
796	97.115				
797	98.451				
798	99.006				
799	98.801				
800	98.001				
