Wavelength	Transmittance	hex_color	Manufacturer	Name	Filter Number
381	79.211		Chroma		210160
382	79.845				
383	80.821				
384	81.307				
385	82.014				
386	82.775				
387	83.328				
388	84.021				
389	84.487				
390	84.925				
391	85.086				
392	85.553				
393	86.08				
394	86.11				
395	86.613				
396	86.6				
397	86.738				
398	87.261				
399	87.308				
400	87.488				
401	87.7				
402	87.913				
403	87.753				
404	87.821				
405	87.717				
406	87.604				
407	87.586				
408	88.105				
409	88.209				
410	88.076				
411	88.248				
412	88.161				
413	88.348				
414	88.177				
415	88.529				
416	88.176				
417	88.115				
418	88.28				
419	88.225				
420	88.242				
421	88.342				
422	88.156				
423	88.131				
424	88.132				
425	88.07				
426	88.146				
427	88.105				
428	88.137				
429	88.116				
430	88.021				
431	87.98				
432	88.145				
433	88.027				
434	87.992				
435	88.021				
436	88.061				
437	88.032				
438	87.923				
439	87.814				
440	87.723				
441	87.614				
442	87.477				
443	87.559				
444	87.361				
445	87.355				
446	87.453				
447	87.444				
448	87.573				
449	87.702				
450	87.545				
451	87.379				
452	87.234				
453	87.25				
454	87.057				
455	86.948				
456	87.128				
457	86.856				
458	86.677				
459	86.893				
460	86.87				
461	86.797				
462	86.781				
463	86.7				
464	86.8				
465	86.792				
466	86.818				
467	86.824				
468	86.588				
469	86.582				
470	86.467				
471	86.481				
472	86.481				
473	86.498				
474	86.396				
475	86.318				
476	86.253				
477	86.37				
478	86.43				
479	86.311				
480	86.332				
481	86.377				
482	86.408				
483	86.419				
484	86.377				
485	86.178				
486	86.232				
487	86.201				
488	86.31				
489	86.209				
490	86.216				
491	86.031				
492	86.295				
493	86.277				
494	86.381				
495	86.37				
496	86.371				
497	86.084				
498	86.154				
499	86.177				
500	86.448				
501	86.372				
502	86.393				
503	86.275				
504	86.028				
505	86.253				
506	86.203				
507	86.338				
508	86.332				
509	86.134				
510	86.411				
511	86.287				
512	86.284				
513	86.266				
514	86.211				
515	86.296				
516	86.247				
517	86.273				
518	86.253				
519	86.009				
520	86.127				
521	86.161				
522	86.147				
523	86.131				
524	86.169				
525	86.414				
526	86.239				
527	86.44				
528	86.339				
529	86.147				
530	86.267				
531	86.374				
532	86.482				
533	86.257				
534	86.187				
535	86.305				
536	86.152				
537	86.18				
538	86.172				
539	86.047				
540	86.258				
541	86.222				
542	86.104				
543	86.286				
544	86.21				
545	86.121				
546	86.411				
547	86.182				
548	86.139				
549	86.161				
550	86.012				
551	86.082				
552	86.101				
553	86.206				
554	86.31				
555	86.228				
556	86.277				
557	86.3				
558	86.141				
559	86.103				
560	86.024				
561	86.193				
562	86.311				
563	86.292				
564	86.153				
565	86.13				
566	86.001				
567	86.29				
568	86.11				
569	86.121				
570	86.376				
571	86.32				
572	86.217				
573	86.18				
574	86.47				
575	86.257				
576	86.352				
577	86.261				
578	86.127				
579	86.284				
580	86.26				
581	85.963				
582	86.145				
583	86.23				
584	86.132				
585	86.03				
586	86.156				
587	86.089				
588	85.928				
589	85.96				
590	85.976				
591	85.874				
592	85.98				
593	85.975				
594	85.936				
595	86.117				
596	85.969				
597	85.958				
598	85.965				
599	86.121				
600	86.006				
601	85.97				
602	85.978				
603	86.001				
604	86.149				
605	86.179				
606	86.093				
607	86.048				
608	86.042				
609	86.024				
610	85.963				
611	86.135				
612	86.027				
613	86.025				
614	86.083				
615	85.935				
616	85.967				
617	86.008				
618	85.921				
619	85.761				
620	85.883				
621	85.742				
622	85.654				
623	85.675				
624	85.864				
625	85.873				
626	85.869				
627	85.791				
628	85.691				
629	85.654				
630	85.632				
631	85.631				
632	85.724				
633	85.558				
634	85.655				
635	85.637				
636	85.672				
637	85.699				
638	85.565				
639	85.668				
640	85.562				
641	85.735				
642	85.602				
643	85.637				
644	85.634				
645	85.596				
646	85.557				
647	85.636				
648	85.694				
649	85.518				
650	85.414				
651	85.411				
652	85.502				
653	85.401				
654	85.529				
655	85.342				
656	85.485				
657	85.402				
658	85.505				
659	85.437				
660	85.511				
661	85.263				
662	85.328				
663	85.354				
664	85.231				
665	85.102				
666	85.189				
667	85.221				
668	85.097				
669	85.127				
670	85.114				
671	85.185				
672	85.009				
673	85.112				
674	85.119				
675	85.05				
676	84.929				
677	85.019				
678	84.966				
679	84.895				
680	84.961				
681	85.099				
682	85.036				
683	85.048				
684	85.151				
685	85.064				
686	84.85				
687	84.802				
688	84.874				
689	84.734				
690	84.955				
691	84.806				
692	84.827				
693	84.952				
694	84.941				
695	84.905				
696	84.764				
697	84.629				
698	84.527				
699	84.482				
700	84.63				
701	84.763				
702	84.508				
703	84.639				
704	84.542				
705	84.637				
706	84.452				
707	84.439				
708	84.345				
709	84.39				
710	84.272				
711	84.221				
712	84.129				
713	84.132				
714	83.944				
715	84.171				
716	84.101				
717	84.212				
718	84.016				
719	84.107				
720	84.101				
721	84.004				
722	83.91				
723	83.868				
724	83.603				
725	83.765				
726	83.745				
727	83.697				
728	83.558				
729	83.484				
730	83.509				
731	83.441				
732	83.639				
733	83.524				
734	83.458				
735	83.341				
736	83.341				
737	83.304				
738	83.233				
739	82.92				
740	82.806				
741	82.912				
742	82.788				
743	83.008				
744	82.694				
745	82.636				
746	82.697				
747	82.6				
748	82.597				
749	82.574				
750	82.634				
751	82.805				
752	82.511				
753	82.163				
754	82.426				
755	82.333				
756	82.028				
757	81.774				
758	81.698				
759	81.54				
760	81.428				
761	81.491				
762	81.44				
763	81.388				
764	81.448				
765	81.037				
766	81.135				
767	81.102				
768	80.663				
769	80.651				
770	80.887				
771	80.602				
772	80.543				
773	80.635				
774	80.432				
775	80.306				
776	80.054				
777	79.889				
778	79.879				
779	79.65				
780	79.597				
781	79.424				
782	79.021				
783	79.027				
784	79.197				
785	79.103				
786	78.998				
787	78.854				
788	78.411				
789	78.656				
790	78.492				
791	78.287				
792	78.129				
793	78.035				
794	77.891				
795	77.764				
796	77.394				
797	77.315				
798	77.296				
799	77.171				
800	76.961				
801	0.0				
