Wavelength	Transmittance	hex_color	Manufacturer	Name	Filter Number
380	36.462		Chroma		ZT633rdc
381	32.946				
382	28.366				
383	33.535				
384	40.969				
385	43.708				
386	42.447				
387	36.656				
388	30.483				
389	32.789				
390	36.815				
391	30.187				
392	18.935				
393	16.871				
394	22.322				
395	24.315				
396	18.002				
397	13.426				
398	17.306				
399	26.283				
400	30.239				
401	28.811				
402	32.805				
403	43.507				
404	50.72				
405	49.213				
406	44.251				
407	46.477				
408	52.54				
409	48.596				
410	38.82				
411	28.862				
412	19.101				
413	14.958				
414	16.773				
415	20.806				
416	17.758				
417	8.471				
418	3.608				
419	3.075				
420	5.772				
421	7.729				
422	3.93				
423	0.443				
424	0.056				
425	0.056				
426	0.04				
427	0.023				
428	0.015				
429	0.03				
430	0.061				
431	0.06				
432	0.036				
433	0.061				
434	0.049				
435	0.036				
436	0.049				
437	0.039				
438	0.045				
439	0.09				
440	0.257				
441	1.346				
442	5.618				
443	11.631				
444	13.769				
445	14.559				
446	15.526				
447	13.478				
448	15.537				
449	23.549				
450	27.311				
451	26.948				
452	21.068				
453	11.065				
454	6.536				
455	5.449				
456	3.915				
457	6.079				
458	16.115				
459	23.05				
460	16.639				
461	8.45				
462	7.584				
463	13.093				
464	24.511				
465	28.396				
466	19.337				
467	10.863				
468	10.308				
469	14.804				
470	17.322				
471	11.871				
472	4.895				
473	2.172				
474	1.534				
475	1.727				
476	2.598				
477	3.362				
478	2.891				
479	1.443				
480	0.57				
481	0.312				
482	0.222				
483	0.207				
484	0.246				
485	0.366				
486	0.615				
487	0.803				
488	0.698				
489	0.419				
490	0.212				
491	0.129				
492	0.118				
493	0.131				
494	0.153				
495	0.213				
496	0.268				
497	0.261				
498	0.192				
499	0.117				
500	0.087				
501	0.074				
502	0.063				
503	0.071				
504	0.094				
505	0.123				
506	0.145				
507	0.136				
508	0.113				
509	0.081				
510	0.054				
511	0.045				
512	0.048				
513	0.049				
514	0.052				
515	0.07				
516	0.097				
517	0.118				
518	0.114				
519	0.099				
520	0.071				
521	0.055				
522	0.05				
523	0.041				
524	0.049				
525	0.061				
526	0.071				
527	0.106				
528	0.131				
529	0.141				
530	0.124				
531	0.093				
532	0.069				
533	0.063				
534	0.056				
535	0.049				
536	0.055				
537	0.068				
538	0.084				
539	0.122				
540	0.158				
541	0.178				
542	0.165				
543	0.147				
544	0.126				
545	0.101				
546	0.083				
547	0.078				
548	0.087				
549	0.104				
550	0.129				
551	0.174				
552	0.258				
553	0.37				
554	0.459				
555	0.475				
556	0.414				
557	0.325				
558	0.268				
559	0.232				
560	0.23				
561	0.244				
562	0.292				
563	0.377				
564	0.548				
565	0.873				
566	1.365				
567	1.8				
568	1.865				
569	1.535				
570	1.092				
571	0.783				
572	0.603				
573	0.518				
574	0.471				
575	0.466				
576	0.494				
577	0.547				
578	0.652				
579	0.787				
580	1.032				
581	1.38				
582	1.851				
583	2.412				
584	2.916				
585	3.135				
586	2.997				
587	2.655				
588	2.241				
589	1.889				
590	1.663				
591	1.535				
592	1.488				
593	1.553				
594	1.702				
595	2.002				
596	2.423				
597	3.012				
598	3.632				
599	3.905				
600	3.608				
601	2.981				
602	1.976				
603	1.372				
604	1.0				
605	0.768				
606	0.613				
607	0.513				
608	0.441				
609	0.4				
610	0.38				
611	0.356				
612	0.35				
613	0.339				
614	0.346				
615	0.359				
616	0.363				
617	0.386				
618	0.402				
619	0.425				
620	0.446				
621	0.483				
622	0.521				
623	0.557				
624	0.602				
625	0.656				
626	0.725				
627	0.809				
628	0.891				
629	1.006				
630	1.172				
631	1.363				
632	1.617				
633	1.977				
634	2.439				
635	3.065				
636	3.923				
637	5.115				
638	6.946				
639	9.322				
640	12.625				
641	17.088				
642	23.274				
643	30.696				
644	38.454				
645	46.591				
646	54.869				
647	63.82				
648	73.144				
649	81.838				
650	88.875				
651	92.974				
652	95.076				
653	96.001				
654	96.515				
655	96.858				
656	97.129				
657	97.457				
658	97.737				
659	97.872				
660	97.975				
661	97.782				
662	97.628				
663	97.448				
664	97.155				
665	97.032				
666	97.088				
667	97.122				
668	97.14				
669	97.19				
670	97.254				
671	97.36				
672	97.425				
673	97.689				
674	97.694				
675	97.894				
676	98.058				
677	98.131				
678	98.213				
679	98.148				
680	98.039				
681	97.973				
682	98.101				
683	98.293				
684	98.227				
685	98.048				
686	97.986				
687	98.058				
688	98.006				
689	98.028				
690	98.035				
691	98.086				
692	98.305				
693	98.4				
694	98.446				
695	98.437				
696	98.441				
697	98.48				
698	98.346				
699	98.037				
700	97.917				
701	97.967				
702	97.866				
703	97.651				
704	97.656				
705	97.698				
706	97.927				
707	97.913				
708	97.921				
709	98.062				
710	98.027				
711	98.052				
712	98.122				
713	98.078				
714	98.19				
715	98.348				
716	98.357				
717	98.428				
718	98.49				
719	98.574				
720	98.467				
721	98.653				
722	98.665				
723	98.772				
724	98.79				
725	98.825				
726	98.72				
727	98.681				
728	98.567				
729	98.432				
730	98.374				
731	98.314				
732	98.032				
733	98.097				
734	98.202				
735	98.145				
736	98.213				
737	98.126				
738	98.15				
739	98.187				
740	98.282				
741	98.488				
742	98.401				
743	98.512				
744	98.573				
745	98.555				
746	98.554				
747	98.497				
748	98.424				
749	98.353				
750	98.374				
751	98.423				
752	98.332				
753	98.328				
754	98.188				
755	98.25				
756	98.371				
757	98.322				
758	98.404				
759	98.415				
760	98.375				
761	98.484				
762	98.481				
763	98.539				
764	98.513				
765	98.445				
766	98.471				
767	98.45				
768	98.358				
769	98.342				
770	98.361				
771	98.432				
772	98.53				
773	98.641				
774	98.665				
775	98.683				
776	98.649				
777	98.607				
778	98.586				
779	98.592				
780	98.521				
781	98.494				
782	98.627				
783	98.565				
784	98.647				
785	98.593				
786	98.737				
787	98.835				
788	98.799				
789	98.777				
790	98.76				
791	98.77				
792	98.863				
793	98.892				
794	98.807				
795	98.656				
796	98.684				
797	98.686				
798	98.709				
799	98.711				
800	98.68				
801	98.617				
802	98.727				
803	98.733				
804	98.757				
805	98.804				
806	98.835				
807	98.724				
808	98.766				
809	98.746				
810	98.772				
811	98.909				
812	98.868				
813	98.674				
814	98.572				
815	98.582				
816	98.459				
817	98.396				
818	98.362				
819	98.284				
820	98.192				
821	98.16				
822	98.053				
823	98.012				
824	97.933				
825	97.827				
826	97.883				
827	97.806				
828	98.142				
829	98.135				
830	97.903				
831	98.014				
832	98.062				
833	98.177				
834	98.255				
835	98.367				
836	98.547				
837	98.736				
838	98.841				
839	98.808				
840	98.881				
841	98.722				
842	98.77				
843	98.677				
844	98.528				
845	98.525				
846	98.573				
847	98.467				
848	98.358				
849	98.27				
850	98.12				
851	98.07				
852	98.034				
853	97.827				
854	97.779				
855	98.043				
856	97.834				
857	97.788				
858	97.823				
859	97.871				
860	97.861				
861	97.838				
862	97.87				
863	97.994				
864	98.088				
865	98.174				
866	98.093				
867	98.087				
868	98.125				
869	98.26				
870	98.199				
871	98.12				
872	98.015				
873	98.009				
874	98.093				
875	98.147				
876	98.178				
877	98.046				
878	98.14				
879	98.188				
880	98.261				
881	98.326				
882	98.399				
883	98.45				
884	98.419				
885	98.421				
886	98.424				
887	98.43				
888	98.432				
889	98.203				
890	98.005				
891	97.887				
892	97.743				
893	97.567				
894	97.418				
895	97.248				
896	97.035				
897	96.89				
898	96.779				
899	96.555				
900	96.446				
901	96.327				
902	96.357				
903	96.251				
904	96.177				
905	96.133				
906	96.269				
907	96.362				
908	96.479				
909	96.715				
910	96.764				
911	96.944				
912	97.014				
913	97.256				
914	97.232				
915	97.34				
916	97.535				
917	97.382				
918	97.346				
919	97.033				
920	96.886				
921	96.681				
922	96.534				
923	96.186				
924	95.989				
925	95.827				
926	95.639				
927	95.422				
928	95.311				
929	95.14				
930	95.088				
931	95.026				
932	94.97				
933	95.021				
934	95.119				
935	95.229				
936	95.328				
937	95.474				
938	95.495				
939	95.664				
940	95.941				
941	95.964				
942	95.974				
943	95.979				
944	96.015				
945	95.941				
946	95.711				
947	95.423				
948	95.147				
949	94.847				
950	94.483				
951	94.046				
952	93.479				
953	93.126				
954	92.744				
955	92.297				
956	91.91				
957	91.636				
958	91.454				
959	91.275				
960	91.148				
961	91.111				
962	91.168				
963	91.295				
964	91.609				
965	91.591				
966	91.887				
967	92.11				
968	92.278				
969	92.391				
970	92.312				
971	92.025				
972	91.508				
973	90.849				
974	90.132				
975	89.263				
976	88.169				
977	86.781				
978	85.244				
979	83.768				
980	82.173				
981	80.747				
982	79.41				
983	77.983				
984	76.653				
985	75.519				
986	74.356				
987	73.329				
988	72.292				
989	71.484				
990	70.66				
991	69.875				
992	69.296				
993	68.543				
994	68.027				
995	67.492				
996	66.832				
997	66.52				
998	66.027				
999	65.626				
1000	65.219				
