Wavelength	Transmittance	hex_color	Manufacturer	Name	Filter Number
300	0.0		Chroma		ZET442/488m
301	0.0				
302	0.0				
303	0.0				
304	0.0				
305	0.0				
306	0.0				
307	0.0				
308	0.0				
309	0.0				
310	0.0				
311	0.0				
312	0.0				
313	0.0				
314	0.0				
315	0.0				
316	0.0				
317	0.0				
318	0.0				
319	0.0				
320	0.0				
321	0.0				
322	0.0				
323	0.0				
324	0.0				
325	0.0				
326	0.0				
327	0.0				
328	0.0				
329	0.0				
330	0.0				
331	0.0				
332	0.0				
333	0.0				
334	0.0				
335	0.0				
336	0.0				
337	0.0				
338	0.0				
339	0.0				
340	0.0				
341	0.0				
342	0.0				
343	0.0				
344	0.0				
345	0.0				
346	0.0				
347	0.0				
348	0.0				
349	0.0				
350	0.0				
351	0.0				
352	0.0				
353	0.0				
354	0.0				
355	0.0				
356	0.0				
357	0.0				
358	0.0				
359	0.0				
360	0.0				
361	0.0				
362	0.0				
363	0.0				
364	0.0				
365	0.0				
366	0.0				
367	0.0				
368	0.0				
369	0.0				
370	0.0				
371	0.0				
372	0.0				
373	0.0				
374	0.0				
375	0.0				
376	0.0				
377	0.0				
378	0.0				
379	0.0				
380	0.0				
381	0.0				
382	0.0				
383	0.0				
384	0.0				
385	0.0				
386	0.0				
387	0.0				
388	0.0				
389	0.0				
390	0.0				
391	0.0				
392	0.0				
393	0.0				
394	0.0				
395	0.0				
396	0.0				
397	0.0				
398	0.0				
399	0.0				
400	0.0				
401	0.0				
402	0.0				
403	0.0				
404	0.0				
405	0.0				
406	0.0				
407	0.0				
408	0.0				
409	0.0				
410	0.0				
411	0.0				
412	0.0				
413	0.0				
414	0.0				
415	0.0				
416	0.0				
417	0.0				
418	0.0				
419	0.0				
420	0.0				
421	0.0				
422	0.0				
423	0.0				
424	0.0				
425	0.0				
426	0.0				
427	0.0				
428	0.0				
429	0.0				
430	0.0				
431	0.0				
432	0.0				
433	0.0				
434	0.0				
435	0.0				
436	0.0				
437	0.0				
438	0.0				
439	0.0				
440	0.0				
441	0.0				
442	0.0				
443	0.0				
444	0.0				
445	0.0				
446	0.0				
447	0.0				
448	0.002				
449	0.029				
450	0.411				
451	19.193				
452	68.879				
453	92.581				
454	96.411				
455	96.833				
456	96.816				
457	97.275				
458	97.53				
459	97.137				
460	97.595				
461	97.837				
462	97.804				
463	97.711				
464	97.919				
465	97.682				
466	97.782				
467	96.868				
468	96.86				
469	97.107				
470	97.328				
471	97.268				
472	97.402				
473	97.625				
474	97.18				
475	93.56				
476	41.442				
477	4.282				
478	0.315				
479	0.033				
480	0.005				
481	0.001				
482	0.0				
483	0.0				
484	0.0				
485	0.0				
486	0.0				
487	0.0				
488	0.0				
489	0.0				
490	0.0				
491	0.0				
492	0.0				
493	0.0				
494	0.0				
495	0.0				
496	0.001				
497	0.002				
498	0.012				
499	0.115				
500	3.388				
501	48.651				
502	79.02				
503	88.169				
504	92.008				
505	96.198				
506	94.56				
507	95.038				
508	96.101				
509	96.504				
510	96.419				
511	96.804				
512	97.195				
513	96.401				
514	96.288				
515	97.372				
516	97.964				
517	97.665				
518	97.915				
519	98.136				
520	97.9				
521	97.961				
522	98.143				
523	98.081				
524	97.94				
525	97.991				
526	98.151				
527	97.992				
528	97.881				
529	97.91				
530	97.944				
531	98.053				
532	97.692				
533	96.936				
534	96.252				
535	97.068				
536	97.98				
537	97.425				
538	96.696				
539	96.946				
540	97.401				
541	97.289				
542	97.775				
543	97.919				
544	97.435				
545	97.138				
546	97.734				
547	97.686				
548	97.555				
549	97.467				
550	97.751				
551	97.686				
552	97.284				
553	97.5				
554	97.763				
555	97.541				
556	97.436				
557	97.693				
558	97.911				
559	97.673				
560	97.628				
561	98.008				
562	98.029				
563	97.929				
564	97.581				
565	98.017				
566	98.368				
567	98.059				
568	98.003				
569	98.209				
570	98.095				
571	97.914				
572	98.164				
573	98.342				
574	98.327				
575	98.03				
576	98.062				
577	98.18				
578	98.324				
579	98.009				
580	97.916				
581	98.131				
582	98.449				
583	98.248				
584	98.039				
585	98.083				
586	98.303				
587	98.255				
588	98.103				
589	98.089				
590	98.173				
591	98.062				
592	97.632				
593	97.702				
594	97.965				
595	98.286				
596	97.951				
597	97.613				
598	97.652				
599	98.002				
600	98.134				
601	98.004				
602	97.593				
603	97.897				
604	98.265				
605	98.366				
606	98.023				
607	97.926				
608	98.111				
609	98.219				
610	98.367				
611	98.196				
612	98.111				
613	98.086				
614	98.392				
615	98.238				
616	98.066				
617	98.102				
618	98.17				
619	98.326				
620	98.417				
621	98.181				
622	98.084				
623	98.203				
624	98.374				
625	98.307				
626	98.285				
627	98.398				
628	98.314				
629	98.347				
630	98.093				
631	98.055				
632	98.194				
633	98.347				
634	98.38				
635	98.027				
636	97.895				
637	97.941				
638	98.191				
639	98.25				
640	98.309				
641	97.983				
642	97.797				
643	97.947				
644	98.199				
645	98.0				
646	97.942				
647	97.742				
648	98.166				
649	98.149				
650	98.026				
651	97.981				
652	97.564				
653	97.568				
654	97.766				
655	98.327				
656	98.385				
657	97.987				
658	97.914				
659	97.605				
660	97.818				
661	98.205				
662	98.16				
663	98.227				
664	97.958				
665	98.008				
666	98.163				
667	97.983				
668	97.793				
669	97.482				
670	97.349				
671	97.553				
672	97.891				
673	98.017				
674	97.821				
675	97.355				
676	97.15				
677	97.112				
678	97.314				
679	97.56				
680	97.709				
681	97.5				
682	97.303				
683	97.256				
684	97.426				
685	97.598				
686	97.326				
687	97.416				
688	97.329				
689	97.485				
690	97.679				
691	97.828				
692	97.519				
693	97.415				
694	97.018				
695	96.836				
696	97.184				
697	97.674				
698	97.859				
699	97.867				
700	97.536				
701	96.967				
702	96.857				
703	96.947				
704	97.173				
705	97.526				
706	97.977				
707	97.928				
708	97.573				
709	97.43				
710	97.211				
711	97.385				
712	97.407				
713	97.466				
714	97.403				
715	97.604				
716	97.686				
717	97.904				
718	97.881				
719	97.845				
720	97.665				
721	97.058				
722	96.923				
723	97.249				
724	97.508				
725	98.004				
726	98.012				
727	97.768				
728	97.682				
729	97.093				
730	97.106				
731	97.212				
732	97.413				
733	97.428				
734	97.706				
735	97.674				
736	97.735				
737	97.676				
738	97.742				
739	97.928				
740	97.838				
741	97.703				
742	97.714				
743	97.471				
744	97.412				
745	97.434				
746	97.773				
747	98.073				
748	98.339				
749	98.16				
750	98.075				
751	97.799				
752	97.414				
753	97.445				
754	97.325				
755	97.483				
756	97.431				
757	97.851				
758	98.194				
759	97.898				
760	98.194				
761	98.471				
762	98.725				
763	97.931				
764	97.812				
765	97.913				
766	97.347				
767	97.353				
768	97.433				
769	97.588				
770	97.847				
771	97.549				
772	97.558				
773	97.467				
774	97.128				
775	96.99				
776	97.173				
777	97.544				
778	97.216				
779	97.073				
780	96.778				
781	95.711				
782	95.353				
783	94.875				
784	94.819				
785	94.836				
786	95.436				
787	96.185				
788	97.077				
789	97.559				
790	97.915				
791	97.823				
792	97.764				
793	97.45				
794	97.418				
795	97.344				
796	96.932				
797	97.268				
798	96.936				
799	97.172				
800	97.856				
801	97.514				
802	98.154				
803	97.42				
804	97.437				
805	97.364				
806	97.089				
807	96.426				
808	96.47				
809	96.211				
810	96.55				
811	96.722				
812	97.034				
813	97.386				
814	97.705				
815	97.019				
816	97.372				
817	96.658				
818	96.89				
819	96.205				
820	96.669				
821	96.474				
822	96.61				
823	97.261				
824	97.637				
825	97.509				
826	97.557				
827	96.806				
828	97.225				
829	96.898				
830	96.43				
831	96.748				
832	96.869				
833	96.635				
834	96.772				
835	95.977				
836	96.997				
837	96.28				
838	96.721				
839	97.98				
840	97.529				
841	97.417				
842	96.331				
843	96.465				
844	95.592				
845	95.473				
846	94.38				
847	94.687				
848	95.552				
849	94.953				
850	95.0				
851	95.562				
852	95.477				
853	94.954				
854	94.108				
855	94.113				
856	92.747				
857	92.403				
858	92.276				
859	92.002				
860	92.546				
861	92.67				
862	91.915				
863	92.691				
864	92.77				
865	92.607				
866	93.312				
867	93.743				
868	94.221				
869	93.129				
870	92.301				
871	91.067				
872	89.579				
873	87.507				
874	85.976				
875	86.273				
876	86.273				
877	87.379				
878	89.592				
879	92.57				
880	94.365				
881	93.971				
882	92.106				
883	87.3				
884	82.538				
885	77.415				
886	72.802				
887	71.419				
888	72.125				
889	75.411				
890	82.054				
891	89.769				
892	93.125				
893	83.179				
894	60.542				
895	39.272				
896	24.261				
897	14.976				
898	9.697				
899	6.414				
900	4.412				
901	3.148				
902	2.287				
903	1.697				
904	1.292				
905	0.997				
906	0.799				
907	0.64				
908	0.523				
909	0.438				
910	0.369				
911	0.316				
912	0.275				
913	0.243				
914	0.219				
915	0.197				
916	0.18				
917	0.169				
918	0.16				
919	0.152				
920	0.147				
921	0.143				
922	0.14				
923	0.14				
924	0.142				
925	0.144				
926	0.148				
927	0.153				
928	0.162				
929	0.173				
930	0.185				
931	0.199				
932	0.217				
933	0.239				
934	0.266				
935	0.3				
936	0.344				
937	0.394				
938	0.459				
939	0.546				
940	0.649				
941	0.791				
942	0.982				
943	1.254				
944	1.62				
945	2.146				
946	2.95				
947	4.187				
948	6.189				
949	9.668				
950	15.454				
951	25.888				
952	43.35				
953	64.207				
954	79.132				
955	81.507				
956	74.592				
957	67.604				
958	62.493				
959	60.386				
960	60.34				
961	62.766				
962	66.214				
963	70.631				
964	74.153				
965	77.569				
966	79.48				
967	80.302				
968	79.514				
969	78.837				
970	78.792				
971	77.807				
972	78.627				
973	79.994				
974	80.404				
975	81.3				
976	82.658				
977	83.257				
978	83.243				
979	83.398				
980	82.711				
981	82.97				
982	82.514				
983	82.559				
984	81.428				
985	81.525				
986	82.61				
987	82.102				
988	82.054				
989	82.01				
990	82.536				
991	82.579				
992	82.982				
993	83.323				
994	82.902				
995	82.933				
996	83.061				
997	83.75				
998	84.606				
999	85.599				
1000	86.074				
