Wavelength	Transmittance	hex_color	Manufacturer	Name	Filter Number
300	0.0		Chroma		ET610lp
301	0.0				
302	0.0				
303	0.0				
304	0.0				
305	0.0				
306	0.0				
307	0.0				
308	0.0				
309	0.0				
310	0.0				
311	0.0				
312	0.0				
313	0.0				
314	0.0				
315	0.0				
316	0.0				
317	0.0				
318	0.0				
319	0.0				
320	0.0				
321	0.0				
322	0.0				
323	0.0				
324	0.0				
325	0.0				
326	0.0				
327	0.0				
328	0.0				
329	0.0				
330	0.0				
331	0.0				
332	0.0				
333	0.0				
334	0.0				
335	0.0				
336	0.0				
337	0.0				
338	0.0				
339	0.0				
340	0.0				
341	0.0				
342	0.0				
343	0.0				
344	0.0				
345	0.0				
346	0.0				
347	0.001				
348	0.001				
349	0.001				
350	0.0				
351	0.0				
352	0.0				
353	0.0				
354	0.0				
355	0.0				
356	0.0				
357	0.0				
358	0.0				
359	0.0				
360	0.0				
361	0.0				
362	0.0				
363	0.0				
364	0.0				
365	0.0				
366	0.0				
367	0.0				
368	0.0				
369	0.0				
370	0.0				
371	0.0				
372	0.0				
373	0.0				
374	0.0				
375	0.0				
376	0.0				
377	0.0				
378	0.0				
379	0.0				
380	0.0				
381	0.0				
382	0.0				
383	0.0				
384	0.0				
385	0.0				
386	0.0				
387	0.0				
388	0.0				
389	0.0				
390	0.0				
391	0.0				
392	0.0				
393	0.0				
394	0.0				
395	0.0				
396	0.0				
397	0.0				
398	0.0				
399	0.0				
400	0.0				
401	0.0				
402	0.0				
403	0.0				
404	0.0				
405	0.0				
406	0.0				
407	0.0				
408	0.0				
409	0.0				
410	0.0				
411	0.0				
412	0.0				
413	0.0				
414	0.0				
415	0.001				
416	0.001				
417	0.0				
418	0.0				
419	0.0				
420	0.0				
421	0.0				
422	0.0				
423	0.0				
424	0.0				
425	0.0				
426	0.0				
427	0.0				
428	0.0				
429	0.0				
430	0.0				
431	0.0				
432	0.0				
433	0.0				
434	0.0				
435	0.0				
436	0.0				
437	0.0				
438	0.0				
439	0.0				
440	0.0				
441	0.0				
442	0.0				
443	0.0				
444	0.0				
445	0.0				
446	0.0				
447	0.0				
448	0.0				
449	0.0				
450	0.0				
451	0.0				
452	0.0				
453	0.0				
454	0.001				
455	0.001				
456	0.0				
457	0.0				
458	0.0				
459	0.0				
460	0.0				
461	0.0				
462	0.0				
463	0.0				
464	0.0				
465	0.0				
466	0.0				
467	0.0				
468	0.0				
469	0.0				
470	0.0				
471	0.0				
472	0.001				
473	0.0				
474	0.0				
475	0.0				
476	0.0				
477	0.0				
478	0.0				
479	0.0				
480	0.0				
481	0.0				
482	0.0				
483	0.0				
484	0.0				
485	0.0				
486	0.0				
487	0.0				
488	0.0				
489	0.0				
490	0.0				
491	0.0				
492	0.0				
493	0.0				
494	0.0				
495	0.0				
496	0.0				
497	0.0				
498	0.0				
499	0.0				
500	0.0				
501	0.0				
502	0.0				
503	0.0				
504	0.0				
505	0.0				
506	0.0				
507	0.0				
508	0.0				
509	0.0				
510	0.0				
511	0.0				
512	0.0				
513	0.0				
514	0.001				
515	0.0				
516	0.0				
517	0.0				
518	0.0				
519	0.0				
520	0.0				
521	0.0				
522	0.0				
523	0.0				
524	0.0				
525	0.0				
526	0.0				
527	0.0				
528	0.0				
529	0.0				
530	0.0				
531	0.0				
532	0.0				
533	0.0				
534	0.0				
535	0.0				
536	0.0				
537	0.0				
538	0.0				
539	0.0				
540	0.0				
541	0.0				
542	0.0				
543	0.0				
544	0.0				
545	0.0				
546	0.0				
547	0.0				
548	0.0				
549	0.0				
550	0.0				
551	0.0				
552	0.0				
553	0.0				
554	0.0				
555	0.0				
556	0.0				
557	0.0				
558	0.0				
559	0.0				
560	0.0				
561	0.0				
562	0.0				
563	0.0				
564	0.0				
565	0.0				
566	0.0				
567	0.0				
568	0.0				
569	0.0				
570	0.0				
571	0.0				
572	0.0				
573	0.0				
574	0.0				
575	0.0				
576	0.0				
577	0.0				
578	0.0				
579	0.0				
580	0.0				
581	0.0				
582	0.0				
583	0.0				
584	0.0				
585	0.0				
586	0.0				
587	0.0				
588	0.0				
589	0.0				
590	0.0				
591	0.0				
592	0.0				
593	0.0				
594	0.0				
595	0.0				
596	0.0				
597	0.0				
598	0.0				
599	0.0				
600	0.0				
601	0.0				
602	0.0				
603	0.0				
604	0.001				
605	0.004				
606	0.019				
607	0.131				
608	1.558				
609	23.744				
610	83.053				
611	94.833				
612	96.927				
613	95.03				
614	96.162				
615	97.786				
616	97.302				
617	96.809				
618	97.381				
619	97.642				
620	97.018				
621	96.52				
622	96.887				
623	97.605				
624	97.651				
625	96.799				
626	95.922				
627	95.963				
628	96.945				
629	97.988				
630	98.146				
631	97.241				
632	96.045				
633	95.577				
634	96.091				
635	97.234				
636	98.145				
637	98.079				
638	97.112				
639	95.919				
640	95.24				
641	95.537				
642	96.581				
643	97.734				
644	98.302				
645	97.973				
646	97.027				
647	96.129				
648	95.805				
649	96.19				
650	97.079				
651	97.976				
652	98.315				
653	97.972				
654	97.156				
655	96.325				
656	95.915				
657	96.179				
658	96.963				
659	97.809				
660	98.357				
661	98.29				
662	97.664				
663	96.799				
664	96.128				
665	95.94				
666	96.327				
667	97.096				
668	97.925				
669	98.395				
670	98.314				
671	97.767				
672	96.937				
673	96.309				
674	96.091				
675	96.4				
676	97.096				
677	97.876				
678	98.458				
679	98.536				
680	98.17				
681	97.484				
682	96.728				
683	96.182				
684	96.19				
685	96.602				
686	97.337				
687	98.115				
688	98.615				
689	98.676				
690	98.309				
691	97.63				
692	96.974				
693	96.489				
694	96.419				
695	96.746				
696	97.41				
697	98.09				
698	98.666				
699	98.885				
700	98.685				
701	98.226				
702	97.569				
703	97.085				
704	96.758				
705	96.835				
706	97.192				
707	97.779				
708	98.344				
709	98.694				
710	98.764				
711	98.535				
712	98.091				
713	97.574				
714	97.239				
715	97.016				
716	97.106				
717	97.392				
718	97.778				
719	98.036				
720	98.084				
721	97.918				
722	97.502				
723	97.019				
724	96.492				
725	96.181				
726	96.104				
727	96.347				
728	96.947				
729	97.563				
730	98.191				
731	98.683				
732	98.757				
733	98.523				
734	98.035				
735	97.49				
736	96.951				
737	96.563				
738	96.396				
739	96.749				
740	97.246				
741	97.85				
742	98.452				
743	98.91				
744	99.029				
745	98.842				
746	98.373				
747	97.629				
748	96.933				
749	96.392				
750	96.148				
751	96.186				
752	96.531				
753	97.129				
754	97.824				
755	98.541				
756	98.879				
757	99.121				
758	98.894				
759	98.456				
760	97.847				
761	97.197				
762	96.693				
763	96.354				
764	96.316				
765	96.405				
766	96.892				
767	97.36				
768	97.82				
769	98.041				
770	98.134				
771	97.96				
772	97.571				
773	96.974				
774	96.455				
775	95.959				
776	95.62				
777	95.568				
778	95.837				
779	96.352				
780	96.907				
781	97.508				
782	98.067				
783	98.445				
784	98.56				
785	98.336				
786	97.908				
787	97.451				
788	96.905				
789	96.426				
790	96.125				
791	95.857				
792	95.919				
793	96.274				
794	96.501				
795	96.819				
796	97.207				
797	97.415				
798	97.587				
799	97.405				
800	97.148				
801	96.69				
802	96.404				
803	96.116				
804	95.899				
805	95.834				
806	95.878				
807	96.09				
808	96.282				
809	96.81				
810	97.074				
811	97.349				
812	97.409				
813	97.388				
814	97.39				
815	97.134				
816	96.879				
817	96.632				
818	96.503				
819	96.528				
820	96.614				
821	96.769				
822	97.229				
823	97.374				
824	97.594				
825	97.867				
826	98.0				
827	97.937				
828	97.831				
829	97.562				
830	97.212				
831	96.766				
832	96.563				
833	96.282				
834	96.474				
835	96.659				
836	96.611				
837	97.069				
838	97.815				
839	98.109				
840	98.269				
841	98.56				
842	98.688				
843	98.902				
844	98.606				
845	98.209				
846	97.808				
847	97.569				
848	97.112				
849	96.692				
850	96.763				
851	96.771				
852	96.944				
853	97.243				
854	97.633				
855	98.078				
856	98.487				
857	98.82				
858	99.033				
859	99.082				
860	98.975				
861	98.743				
862	98.393				
863	98.016				
864	97.634				
865	97.304				
866	97.067				
867	96.939				
868	96.933				
869	97.035				
870	97.199				
871	97.416				
872	97.62				
873	97.778				
874	97.876				
875	97.869				
876	97.786				
877	97.624				
878	97.4				
879	97.183				
880	96.99				
881	96.866				
882	96.83				
883	96.894				
884	97.073				
885	97.305				
886	97.593				
887	97.893				
888	98.156				
889	98.347				
890	98.439				
891	98.42				
892	98.305				
893	98.125				
894	97.897				
895	97.686				
896	97.556				
897	97.521				
898	97.597				
899	97.811				
900	98.122				
901	98.475				
902	98.81				
903	99.026				
904	99.04				
905	98.77				
906	98.164				
907	97.204				
908	95.985				
909	94.558				
910	93.007				
911	91.557				
912	90.294				
913	89.333				
914	88.81				
915	88.774				
916	89.262				
917	90.285				
918	91.766				
919	93.562				
920	95.515				
921	97.286				
922	98.544				
923	98.923				
924	98.133				
925	96.032				
926	92.647				
927	88.333				
928	83.476				
929	78.49				
930	73.696				
931	69.441				
932	65.873				
933	63.054				
934	61.083				
935	59.956				
936	59.688				
937	60.31				
938	61.83				
939	64.371				
940	67.803				
941	72.137				
942	77.291				
943	82.862				
944	88.217				
945	92.582				
946	95.003				
947	94.828				
948	91.968				
949	86.81				
950	80.48				
951	73.731				
952	67.121				
953	61.3				
954	56.358				
955	52.139				
956	48.755				
957	46.074				
958	43.928				
959	42.249				
960	40.932				
961	39.884				
962	39.047				
963	38.353				
964	37.783				
965	37.348				
966	37.052				
967	36.963				
968	37.202				
969	37.805				
970	38.96				
971	40.907				
972	43.827				
973	48.121				
974	54.186				
975	62.701				
976	73.527				
977	85.572				
978	94.601				
979	93.377				
980	80.262				
981	60.995				
982	44.343				
983	31.982				
984	23.469				
985	17.845				
986	14.058				
987	11.511				
988	9.781				
989	8.642				
990	7.951				
991	7.627				
992	7.675				
993	8.161				
994	9.327				
995	11.602				
996	16.337				
997	28.023				
998	57.849				
999	77.984				
1000	32.599				
