Wavelength	Transmittance	hex_color	Manufacturer	Name	Filter Number
300	0.0		Chroma		ZET445/561m
301	0.0				
302	0.0				
303	0.0				
304	0.0				
305	0.0				
306	0.0				
307	0.0				
308	0.0				
309	0.0				
310	0.0				
311	0.0				
312	0.0				
313	0.0				
314	0.0				
315	0.0				
316	0.0				
317	0.0				
318	0.0				
319	0.0				
320	0.0				
321	0.0				
322	0.0				
323	0.0				
324	0.0				
325	0.0				
326	0.0				
327	0.0				
328	0.0				
329	0.0				
330	0.0				
331	0.0				
332	0.0				
333	0.0				
334	0.0				
335	0.0				
336	0.0				
337	0.0				
338	0.0				
339	0.0				
340	0.0				
341	0.0				
342	0.0				
343	0.0				
344	0.0				
345	0.0				
346	0.0				
347	0.0				
348	0.0				
349	0.0				
350	0.0				
351	0.0				
352	0.0				
353	0.0				
354	0.0				
355	0.0				
356	0.0				
357	0.0				
358	0.0				
359	0.0				
360	0.0				
361	0.0				
362	0.0				
363	0.0				
364	0.0				
365	0.0				
366	0.0				
367	0.0				
368	0.0				
369	0.0				
370	0.0				
371	0.0				
372	0.0				
373	0.0				
374	0.0				
375	0.0				
376	0.0				
377	0.0				
378	0.0				
379	0.0				
380	0.0				
381	0.0				
382	0.0				
383	0.0				
384	0.0				
385	0.0				
386	0.0				
387	0.0				
388	0.0				
389	0.0				
390	0.0				
391	0.0				
392	0.0				
393	0.0				
394	0.0				
395	0.0				
396	0.0				
397	0.0				
398	0.0				
399	0.0				
400	0.0				
401	0.0				
402	0.0				
403	0.0				
404	0.0				
405	0.0				
406	0.0				
407	0.0				
408	0.0				
409	0.0				
410	0.0				
411	0.0				
412	0.0				
413	0.0				
414	0.0				
415	0.0				
416	0.0				
417	0.0				
418	0.0				
419	0.0				
420	0.0				
421	0.0				
422	0.0				
423	0.0				
424	0.0				
425	0.0				
426	0.0				
427	0.0				
428	0.0				
429	0.0				
430	0.0				
431	0.0				
432	0.0				
433	0.0				
434	0.0				
435	0.0				
436	0.0				
437	0.0				
438	0.0				
439	0.0				
440	0.0				
441	0.0				
442	0.0				
443	0.0				
444	0.0				
445	0.0				
446	0.0				
447	0.0				
448	0.0				
449	0.0				
450	0.0				
451	0.0				
452	0.0				
453	0.0				
454	0.0				
455	0.002				
456	0.021				
457	0.659				
458	32.304				
459	92.319				
460	98.109				
461	97.437				
462	96.587				
463	97.433				
464	97.675				
465	97.748				
466	96.827				
467	96.656				
468	98.382				
469	97.055				
470	95.551				
471	97.604				
472	98.039				
473	98.048				
474	98.102				
475	97.446				
476	97.877				
477	98.157				
478	97.659				
479	98.017				
480	97.076				
481	97.885				
482	98.066				
483	98.077				
484	97.441				
485	97.983				
486	97.764				
487	98.209				
488	97.639				
489	98.351				
490	98.332				
491	98.233				
492	97.703				
493	98.262				
494	98.074				
495	98.428				
496	98.408				
497	98.617				
498	98.535				
499	98.261				
500	97.312				
501	98.421				
502	98.711				
503	98.412				
504	97.803				
505	98.296				
506	97.765				
507	98.233				
508	97.818				
509	97.851				
510	98.714				
511	98.449				
512	97.757				
513	96.029				
514	97.666				
515	98.817				
516	98.846				
517	97.972				
518	97.69				
519	98.577				
520	97.972				
521	98.369				
522	97.264				
523	97.236				
524	97.987				
525	98.229				
526	98.85				
527	98.309				
528	98.337				
529	96.576				
530	95.673				
531	96.918				
532	98.288				
533	98.507				
534	97.184				
535	97.603				
536	96.976				
537	97.61				
538	98.558				
539	97.628				
540	98.428				
541	96.436				
542	97.408				
543	98.206				
544	97.803				
545	98.069				
546	97.035				
547	96.259				
548	95.378				
549	93.132				
550	92.002				
551	55.952				
552	3.671				
553	0.098				
554	0.015				
555	0.001				
556	0.0				
557	0.0				
558	0.0				
559	0.0				
560	0.0				
561	0.0				
562	0.0				
563	0.0				
564	0.0				
565	0.0				
566	0.0				
567	0.0				
568	0.0				
569	0.001				
570	0.009				
571	0.139				
572	9.692				
573	74.889				
574	98.332				
575	98.601				
576	96.308				
577	97.993				
578	96.7				
579	96.386				
580	98.2				
581	98.923				
582	97.75				
583	93.2				
584	93.718				
585	95.956				
586	92.394				
587	92.02				
588	96.988				
589	99.014				
590	98.645				
591	97.913				
592	96.22				
593	96.604				
594	97.912				
595	96.205				
596	95.34				
597	97.645				
598	99.19				
599	98.851				
600	97.692				
601	95.301				
602	94.221				
603	96.185				
604	96.55				
605	93.657				
606	93.54				
607	97.237				
608	99.033				
609	98.356				
610	98.833				
611	99.068				
612	97.437				
613	97.184				
614	98.865				
615	98.64				
616	97.048				
617	97.644				
618	99.133				
619	98.301				
620	96.996				
621	97.844				
622	99.13				
623	99.21				
624	99.079				
625	98.798				
626	97.372				
627	96.376				
628	97.527				
629	99.067				
630	98.534				
631	97.714				
632	98.353				
633	98.956				
634	98.198				
635	97.862				
636	98.91				
637	99.232				
638	97.976				
639	97.559				
640	98.741				
641	99.181				
642	97.783				
643	96.935				
644	98.062				
645	99.258				
646	98.796				
647	97.919				
648	98.1				
649	98.598				
650	98.641				
651	98.769				
652	99.344				
653	99.243				
654	98.256				
655	97.858				
656	98.663				
657	99.397				
658	99.02				
659	98.578				
660	99.048				
661	99.396				
662	98.578				
663	97.59				
664	97.855				
665	99.013				
666	99.462				
667	99.155				
668	99.086				
669	99.456				
670	99.268				
671	98.357				
672	97.922				
673	98.506				
674	99.178				
675	99.154				
676	98.848				
677	98.959				
678	99.186				
679	99.013				
680	98.814				
681	98.807				
682	98.708				
683	98.045				
684	97.361				
685	97.662				
686	98.75				
687	99.46				
688	99.254				
689	99.064				
690	99.304				
691	99.459				
692	98.922				
693	98.479				
694	98.842				
695	99.279				
696	99.012				
697	98.469				
698	98.657				
699	99.225				
700	98.738				
701	97.805				
702	98.489				
703	98.544				
704	91.38				
705	76.711				
706	63.493				
707	56.073				
708	50.823				
709	42.276				
710	31.634				
711	24.047				
712	21.063				
713	22.424				
714	28.277				
715	37.216				
716	44.171				
717	47.389				
718	53.471				
719	68.326				
720	85.868				
721	91.862				
722	91.056				
723	93.712				
724	87.337				
725	67.937				
726	54.299				
727	48.062				
728	32.292				
729	14.444				
730	6.534				
731	3.933				
732	3.235				
733	3.475				
734	4.102				
735	3.986				
736	3.177				
737	2.983				
738	5.169				
739	14.932				
740	8.212				
741	1.491				
742	0.587				
743	0.382				
744	0.274				
745	0.153				
746	0.069				
747	0.032				
748	0.017				
749	0.013				
750	0.011				
751	0.011				
752	0.013				
753	0.013				
754	0.009				
755	0.005				
756	0.003				
757	0.002				
758	0.002				
759	0.003				
760	0.003				
761	0.004				
762	0.007				
763	0.007				
764	0.005				
765	0.003				
766	0.003				
767	0.003				
768	0.003				
769	0.006				
770	0.011				
771	0.024				
772	0.03				
773	0.023				
774	0.02				
775	0.023				
776	0.041				
777	0.119				
778	0.408				
779	0.41				
780	0.22				
781	0.221				
782	0.439				
783	1.915				
784	9.318				
785	23.074				
786	4.219				
787	0.285				
788	0.075				
789	0.035				
790	0.028				
791	0.038				
792	0.057				
793	0.028				
794	0.008				
795	0.003				
796	0.002				
797	0.002				
798	0.006				
799	0.015				
800	0.005				
801	0.004				
802	0.003				
803	0.002				
804	0.001				
805	0.001				
806	0.001				
807	0.0				
808	0.0				
809	0.0				
810	0.0				
811	0.0				
812	0.0				
813	0.0				
814	0.0				
815	0.0				
816	0.0				
817	0.0				
818	0.0				
819	0.0				
820	0.0				
821	0.0				
822	0.0				
823	0.0				
824	0.0				
825	0.0				
826	0.0				
827	0.0				
828	0.001				
829	0.002				
830	0.002				
831	0.003				
832	0.004				
833	0.006				
834	0.007				
835	0.01				
836	0.016				
837	0.022				
838	0.028				
839	0.034				
840	0.041				
841	0.05				
842	0.064				
843	0.08				
844	0.094				
845	0.107				
846	0.115				
847	0.121				
848	0.126				
849	0.131				
850	0.135				
851	0.139				
852	0.137				
853	0.132				
854	0.127				
855	0.122				
856	0.119				
857	0.116				
858	0.112				
859	0.11				
860	0.109				
861	0.118				
862	0.143				
863	0.176				
864	0.215				
865	0.255				
866	0.3				
867	0.351				
868	0.409				
869	0.49				
870	0.643				
871	0.946				
872	0.809				
873	0.534				
874	0.412				
875	0.424				
876	0.557				
877	0.924				
878	1.937				
879	5.315				
880	17.579				
881	44.747				
882	74.018				
883	77.553				
884	52.617				
885	25.526				
886	11.915				
887	7.176				
888	5.647				
889	5.679				
890	7.289				
891	12.296				
892	27.253				
893	57.067				
894	67.301				
895	46.309				
896	30.467				
897	28.489				
898	37.073				
899	60.513				
900	81.433				
901	66.602				
902	38.331				
903	24.178				
904	19.422				
905	19.717				
906	24.962				
907	38.74				
908	64.819				
909	86.791				
910	76.383				
911	55.019				
912	43.641				
913	42.806				
914	50.464				
915	65.154				
916	74.318				
917	64.518				
918	46.706				
919	34.704				
920	29.719				
921	30.126				
922	36.263				
923	49.974				
924	71.171				
925	84.556				
926	74.606				
927	57.629				
928	48.079				
929	47.88				
930	56.694				
931	73.258				
932	79.109				
933	58.222				
934	34.899				
935	21.86				
936	16.02				
937	13.831				
938	13.988				
939	16.773				
940	24.265				
941	43.104				
942	68.966				
943	61.292				
944	32.983				
945	18.519				
946	12.565				
947	10.186				
948	9.627				
949	10.513				
950	13.307				
951	19.871				
952	35.022				
953	65.215				
954	88.26				
955	69.438				
956	46.651				
957	35.885				
958	33.756				
959	38.256				
960	51.328				
961	72.524				
962	82.435				
963	63.118				
964	40.119				
965	27.344				
966	21.614				
967	19.829				
968	21.164				
969	26.34				
970	38.92				
971	63.428				
972	87.371				
973	71.285				
974	43.07				
975	27.448				
976	20.424				
977	17.728				
978	17.827				
979	20.696				
980	28.02				
981	43.882				
982	71.451				
983	87.806				
984	65.66				
985	40.845				
986	27.563				
987	21.859				
988	19.959				
989	20.864				
990	24.897				
991	34.061				
992	51.748				
993	77.137				
994	85.464				
995	65.623				
996	44.793				
997	33.406				
998	28.406				
999	27.654				
1000	30.801				
1001	39.037				
1002	55.727				
1003	78.459				
1004	86.2				
1005	65.456				
1006	43.026				
1007	29.815				
1008	23.196				
1009	20.22				
1010	19.732				
1011	21.441				
1012	26.094				
1013	35.017				
1014	50.999				
1015	74.294				
1016	87.656				
1017	76.899				
1018	57.599				
1019	44.51				
1020	37.699				
1021	35.605				
1022	37.292				
1023	42.844				
1024	52.165				
1025	63.569				
1026	69.376				
1027	64.077				
1028	52.108				
1029	41.883				
1030	35.292				
1031	32.174				
1032	32.231				
1033	35.581				
1034	43.342				
1035	57.159				
1036	76.234				
1037	87.655				
1038	76.51				
1039	55.172				
1040	38.898				
1041	29.063				
1042	23.919				
1043	21.434				
1044	20.982				
1045	22.461				
1046	26.048				
1047	32.822				
1048	44.341				
1049	61.431				
1050	78.755				
1051	83.707				
1052	73.229				
1053	59.379				
1054	49.011				
1055	43.279				
1056	41.518				
1057	43.279				
1058	48.093				
1059	56.334				
1060	66.664				
1061	73.662				
1062	72.1				
1063	62.881				
1064	51.95				
1065	43.159				
1066	37.883				
1067	35.283				
1068	35.165				
1069	37.779				
1070	43.296				
1071	52.213				
1072	64.393				
1073	76.822				
1074	81.854				
1075	75.869				
1076	63.745				
1077	52.924				
1078	45.12				
1079	40.84				
1080	39.37				
1081	40.497				
1082	44.42				
1083	51.125				
1084	60.47				
1085	69.765				
1086	75.139				
1087	72.363				
1088	63.758				
1089	54.343				
1090	46.958				
1091	42.636				
1092	40.756				
1093	41.798				
1094	45.402				
1095	52.365				
1096	62.473				
1097	73.994				
1098	80.878				
1099	77.762				
1100	66.296				
