Wavelength	Transmittance	hex_color	Manufacturer	Name	Filter Number
300	32.798		Chroma		KG1
301	34.841				
302	36.955				
303	39.046				
304	41.127				
305	43.198				
306	45.325				
307	47.423				
308	49.509				
309	51.575				
310	53.616				
311	55.622				
312	57.567				
313	59.506				
314	61.381				
315	63.168				
316	65.042				
317	66.782				
318	68.417				
319	70.158				
320	71.548				
321	73.067				
322	74.533				
323	75.987				
324	77.178				
325	78.575				
326	79.567				
327	80.778				
328	81.798				
329	82.827				
330	83.823				
331	84.679				
332	85.51				
333	86.314				
334	86.967				
335	87.649				
336	88.37				
337	88.896				
338	89.414				
339	89.913				
340	90.502				
341	90.806				
342	91.135				
343	91.547				
344	91.684				
345	92.176				
346	92.603				
347	92.95				
348	93.174				
349	93.614				
350	93.965				
351	94.232				
352	94.637				
353	94.966				
354	95.203				
355	95.437				
356	95.727				
357	95.866				
358	96.092				
359	96.162				
360	96.341				
361	96.519				
362	96.633				
363	96.63				
364	96.846				
365	96.912				
366	96.971				
367	97.001				
368	97.054				
369	97.131				
370	97.082				
371	97.223				
372	97.242				
373	97.259				
374	97.352				
375	97.315				
376	97.338				
377	97.373				
378	97.342				
379	97.409				
380	97.302				
381	97.259				
382	97.316				
383	97.265				
384	97.222				
385	97.176				
386	97.036				
387	96.969				
388	96.996				
389	96.89				
390	96.663				
391	96.607				
392	96.465				
393	96.368				
394	96.207				
395	96.105				
396	95.951				
397	95.738				
398	95.548				
399	95.506				
400	95.407				
401	95.375				
402	95.339				
403	95.163				
404	95.116				
405	94.978				
406	94.967				
407	94.895				
408	94.789				
409	94.73				
410	94.664				
411	94.658				
412	94.593				
413	94.551				
414	94.459				
415	94.407				
416	94.267				
417	94.164				
418	94.101				
419	94.016				
420	93.979				
421	93.946				
422	93.774				
423	93.716				
424	93.787				
425	93.91				
426	93.917				
427	93.865				
428	93.908				
429	94.116				
430	94.145				
431	94.082				
432	94.165				
433	94.261				
434	94.264				
435	94.268				
436	94.423				
437	94.395				
438	94.411				
439	94.549				
440	94.484				
441	94.507				
442	94.634				
443	94.601				
444	94.66				
445	94.647				
446	94.627				
447	94.668				
448	94.748				
449	94.704				
450	94.683				
451	94.615				
452	94.574				
453	94.576				
454	94.5				
455	94.533				
456	94.404				
457	94.399				
458	94.277				
459	94.313				
460	94.365				
461	94.414				
462	94.381				
463	94.414				
464	94.5				
465	94.589				
466	94.613				
467	94.697				
468	94.684				
469	94.754				
470	94.877				
471	94.922				
472	95.006				
473	95.005				
474	95.075				
475	95.059				
476	95.122				
477	95.194				
478	95.19				
479	95.19				
480	95.197				
481	95.235				
482	95.253				
483	95.314				
484	95.367				
485	95.36				
486	95.31				
487	95.423				
488	95.446				
489	95.502				
490	95.583				
491	95.576				
492	95.636				
493	95.604				
494	95.638				
495	95.595				
496	95.592				
497	95.583				
498	95.542				
499	95.562				
500	95.63				
501	95.643				
502	95.664				
503	95.591				
504	95.601				
505	95.631				
506	95.592				
507	95.595				
508	95.575				
509	95.563				
510	95.448				
511	95.364				
512	95.318				
513	95.33				
514	95.305				
515	95.232				
516	95.216				
517	95.159				
518	95.088				
519	95.036				
520	95.095				
521	95.029				
522	94.909				
523	94.895				
524	94.9				
525	94.92				
526	94.873				
527	94.873				
528	94.861				
529	94.827				
530	94.842				
531	94.849				
532	94.854				
533	94.841				
534	94.823				
535	94.835				
536	94.886				
537	94.91				
538	94.972				
539	94.986				
540	95.025				
541	95.088				
542	95.167				
543	95.257				
544	95.28				
545	95.358				
546	95.343				
547	95.461				
548	95.476				
549	95.53				
550	95.539				
551	95.545				
552	95.504				
553	95.565				
554	95.601				
555	95.637				
556	95.547				
557	95.529				
558	95.566				
559	95.546				
560	95.572				
561	95.544				
562	95.514				
563	95.395				
564	95.39				
565	95.39				
566	95.409				
567	95.315				
568	95.297				
569	95.208				
570	95.172				
571	95.138				
572	95.129				
573	95.065				
574	95.038				
575	94.959				
576	94.918				
577	94.888				
578	94.914				
579	94.697				
580	94.705				
581	94.632				
582	94.53				
583	94.419				
584	94.319				
585	94.267				
586	94.15				
587	94.067				
588	94.043				
589	93.976				
590	93.792				
591	93.644				
592	93.534				
593	93.427				
594	93.386				
595	93.335				
596	93.089				
597	92.979				
598	92.942				
599	92.854				
600	92.613				
601	92.502				
602	92.43				
603	92.259				
604	92.146				
605	92.011				
606	91.902				
607	91.681				
608	91.557				
609	91.431				
610	91.166				
611	91.068				
612	90.814				
613	90.687				
614	90.554				
615	90.313				
616	90.172				
617	90.004				
618	89.876				
619	89.495				
620	89.283				
621	89.081				
622	88.889				
623	88.692				
624	88.479				
625	88.261				
626	88.024				
627	87.801				
628	87.718				
629	87.537				
630	87.222				
631	86.94				
632	86.687				
633	86.589				
634	86.283				
635	85.993				
636	85.747				
637	85.641				
638	85.4				
639	85.139				
640	84.941				
641	84.63				
642	84.405				
643	84.152				
644	83.902				
645	83.631				
646	83.329				
647	83.095				
648	82.845				
649	82.573				
650	82.291				
651	81.988				
652	81.752				
653	81.444				
654	81.227				
655	80.887				
656	80.622				
657	80.334				
658	80.067				
659	79.778				
660	79.484				
661	79.193				
662	78.904				
663	78.631				
664	78.35				
665	78.051				
666	77.762				
667	77.435				
668	77.146				
669	76.823				
670	76.551				
671	76.236				
672	75.873				
673	75.636				
674	75.251				
675	74.931				
676	74.611				
677	74.28				
678	73.91				
679	73.599				
680	73.233				
681	72.842				
682	72.521				
683	72.145				
684	71.831				
685	71.428				
686	71.065				
687	70.68				
688	70.305				
689	69.935				
690	69.554				
691	69.19				
692	68.782				
693	68.411				
694	68.031				
695	67.654				
696	67.221				
697	66.857				
698	66.473				
699	66.107				
700	65.677				
701	65.295				
702	64.907				
703	64.489				
704	64.141				
705	63.76				
706	63.317				
707	62.959				
708	62.518				
709	62.077				
710	61.739				
711	61.307				
712	60.925				
713	60.55				
714	60.144				
715	59.784				
716	59.3				
717	58.95				
718	58.549				
719	58.132				
720	57.763				
721	57.379				
722	56.974				
723	56.568				
724	56.162				
725	55.776				
726	55.357				
727	54.933				
728	54.603				
729	54.173				
730	53.735				
731	53.379				
732	52.985				
733	52.58				
734	52.181				
735	51.835				
736	51.397				
737	50.997				
738	50.563				
739	50.157				
740	49.782				
741	49.38				
742	48.959				
743	48.588				
744	48.108				
745	47.788				
746	47.377				
747	46.968				
748	46.597				
749	46.193				
750	45.781				
751	45.408				
752	45.017				
753	44.612				
754	44.268				
755	43.837				
756	43.451				
757	43.058				
758	42.687				
759	42.248				
760	41.851				
761	41.459				
762	41.072				
763	40.677				
764	40.279				
765	39.902				
766	39.51				
767	39.092				
768	38.758				
769	38.385				
770	38.032				
771	37.635				
772	37.188				
773	36.87				
774	36.516				
775	36.094				
776	35.7				
777	35.329				
778	35.0				
779	34.585				
780	34.286				
781	33.813				
782	33.542				
783	33.07				
784	32.788				
785	32.45				
786	32.07				
787	31.748				
788	31.397				
789	31.018				
790	30.709				
791	30.359				
792	30.075				
793	29.718				
794	29.281				
795	29.03				
796	28.633				
797	28.372				
798	27.987				
799	27.711				
800	27.366				
801	27.012				
802	26.754				
803	26.374				
804	26.123				
805	25.805				
806	25.48				
807	25.172				
808	24.952				
809	24.599				
810	24.269				
811	23.977				
812	23.698				
813	23.404				
814	23.086				
815	22.899				
816	22.547				
817	22.297				
818	21.971				
819	21.746				
820	21.517				
821	21.159				
822	20.963				
823	20.672				
824	20.411				
825	20.123				
826	19.867				
827	19.666				
828	19.337				
829	19.151				
830	18.912				
831	18.569				
832	18.424				
833	18.176				
834	17.888				
835	17.687				
836	17.402				
837	17.224				
838	16.924				
839	16.735				
840	16.479				
841	16.367				
842	16.022				
843	15.852				
844	15.708				
845	15.386				
846	15.262				
847	14.946				
848	14.851				
849	14.642				
850	14.449				
851	14.25				
852	14.05				
853	13.853				
854	13.655				
855	13.469				
856	13.283				
857	13.099				
858	12.914				
859	12.733				
860	12.552				
861	12.376				
862	12.199				
863	12.029				
864	11.86				
865	11.696				
866	11.532				
867	11.369				
868	11.205				
869	11.047				
870	10.888				
871	10.734				
872	10.58				
873	10.434				
874	10.288				
875	10.14				
876	9.991				
877	9.85				
878	9.709				
879	9.57				
880	9.431				
881	9.297				
882	9.163				
883	9.034				
884	8.904				
885	8.775				
886	8.647				
887	8.525				
888	8.403				
889	8.282				
890	8.162				
891	8.045				
892	7.928				
893	7.815				
894	7.701				
895	7.591				
896	7.48				
897	7.373				
898	7.265				
899	7.161				
900	7.057				
901	6.957				
902	6.856				
903	6.757				
904	6.658				
905	6.564				
906	6.47				
907	6.377				
908	6.283				
909	6.195				
910	6.107				
911	6.02				
912	5.932				
913	5.848				
914	5.763				
915	5.682				
916	5.6				
917	5.521				
918	5.441				
919	5.366				
920	5.29				
921	5.215				
922	5.14				
923	5.067				
924	4.994				
925	4.925				
926	4.856				
927	4.788				
928	4.72				
929	4.654				
930	4.588				
931	4.524				
932	4.46				
933	4.398				
934	4.335				
935	4.275				
936	4.215				
937	4.158				
938	4.1				
939	4.043				
940	3.986				
941	3.932				
942	3.878				
943	3.825				
944	3.773				
945	3.721				
946	3.669				
947	3.619				
948	3.569				
949	3.522				
950	3.474				
951	3.427				
952	3.381				
953	3.336				
954	3.29				
955	3.246				
956	3.203				
957	3.161				
958	3.119				
959	3.078				
960	3.038				
961	2.998				
962	2.958				
963	2.92				
964	2.881				
965	2.845				
966	2.808				
967	2.772				
968	2.736				
969	2.701				
970	2.666				
971	2.632				
972	2.599				
973	2.566				
974	2.533				
975	2.501				
976	2.47				
977	2.439				
978	2.408				
979	2.378				
980	2.349				
981	2.32				
982	2.291				
983	2.263				
984	2.235				
985	2.208				
986	2.181				
987	2.156				
988	2.13				
989	2.105				
990	2.08				
991	2.055				
992	2.031				
993	2.007				
994	1.983				
995	1.96				
996	1.938				
997	1.916				
998	1.893				
999	1.872				
1000	1.85				
1001	1.83				
1002	1.809				
1003	1.789				
1004	1.768				
1005	1.749				
1006	1.73				
1007	1.711				
1008	1.691				
1009	1.674				
1010	1.656				
1011	1.638				
1012	1.62				
1013	1.603				
1014	1.586				
1015	1.57				
1016	1.553				
1017	1.536				
1018	1.52				
1019	1.505				
1020	1.491				
1021	1.475				
1022	1.46				
1023	1.446				
1024	1.431				
1025	1.417				
1026	1.402				
1027	1.388				
1028	1.374				
1029	1.361				
1030	1.347				
1031	1.335				
1032	1.322				
1033	1.309				
1034	1.297				
1035	1.284				
1036	1.272				
1037	1.26				
1038	1.249				
1039	1.237				
1040	1.225				
1041	1.215				
1042	1.204				
1043	1.194				
1044	1.183				
1045	1.173				
1046	1.162				
1047	1.152				
1048	1.142				
1049	1.132				
1050	1.122				
1051	1.113				
1052	1.104				
1053	1.094				
1054	1.085				
1055	1.076				
1056	1.068				
1057	1.089				
1058	1.08				
1059	1.071				
1060	1.062				
1061	1.053				
1062	1.045				
1063	1.037				
1064	1.029				
1065	1.022				
1066	1.014				
1067	1.006				
1068	0.998				
1069	0.991				
1070	0.983				
1071	0.976				
1072	0.968				
1073	0.962				
1074	0.955				
1075	0.948				
1076	0.941				
1077	0.935				
1078	0.928				
1079	0.922				
1080	0.916				
1081	0.909				
1082	0.903				
1083	0.897				
1084	0.891				
1085	0.885				
1086	0.879				
1087	0.873				
1088	0.868				
1089	0.862				
1090	0.857				
1091	0.851				
1092	0.846				
1093	0.841				
1094	0.836				
1095	0.831				
1096	0.826				
1097	0.821				
1098	0.816				
1099	0.812				
1100	0.808				
