Wavelength	Transmittance	hex_color	Manufacturer	Name	Filter Number
500	53.498		Chroma		RT633rdc
501	62.18				
502	58.246				
503	45.453				
504	34.409				
505	32.792				
506	39.242				
507	52.13				
508	61.638				
509	56.976				
510	45.237				
511	36.99				
512	38.596				
513	49.624				
514	60.866				
515	61.298				
516	48.42				
517	35.349				
518	28.689				
519	30.345				
520	40.487				
521	55.75				
522	62.203				
523	52.689				
524	38.739				
525	29.915				
526	29.71				
527	38.464				
528	54.692				
529	62.635				
530	56.987				
531	41.616				
532	29.074				
533	24.558				
534	26.911				
535	37.517				
536	55.065				
537	63.144				
538	56.953				
539	41.414				
540	30.535				
541	26.373				
542	30.952				
543	43.497				
544	58.899				
545	62.678				
546	50.829				
547	33.67				
548	24.589				
549	21.674				
550	26.22				
551	38.588				
552	55.997				
553	63.797				
554	55.216				
555	39.209				
556	28.78				
557	26.419				
558	32.409				
559	46.354				
560	59.367				
561	59.401				
562	45.667				
563	30.446				
564	20.106				
565	15.517				
566	15.285				
567	19.417				
568	30.352				
569	48.316				
570	62.182				
571	60.975				
572	49.945				
573	37.964				
574	32.287				
575	35.653				
576	46.9				
577	58.941				
578	61.683				
579	53.906				
580	40.274				
581	28.178				
582	21.125				
583	17.716				
584	19.426				
585	27.45				
586	39.509				
587	49.915				
588	50.417				
589	43.58				
590	31.657				
591	20.717				
592	14.846				
593	14.533				
594	20.458				
595	31.53				
596	39.534				
597	40.968				
598	37.695				
599	27.491				
600	15.658				
601	10.724				
602	13.318				
603	17.565				
604	17.929				
605	19.209				
606	22.906				
607	17.12				
608	6.29				
609	1.479				
610	0.568				
611	0.301				
612	0.197				
613	0.132				
614	0.105				
615	0.086				
616	0.076				
617	0.073				
618	0.068				
619	0.069				
620	0.066				
621	0.067				
622	0.072				
623	0.087				
624	0.09				
625	0.105				
626	0.13				
627	0.158				
628	0.208				
629	0.287				
630	0.399				
631	0.599				
632	0.957				
633	1.643				
634	2.901				
635	5.313				
636	10.427				
637	19.907				
638	35.294				
639	55.425				
640	75.058				
641	89.327				
642	94.73				
643	96.161				
644	96.201				
645	96.527				
646	97.303				
647	97.149				
648	97.251				
649	97.168				
650	97.105				
651	96.723				
652	96.853				
653	97.115				
654	97.087				
655	97.275				
656	97.503				
657	97.672				
658	97.754				
659	97.68				
660	97.635				
661	97.221				
662	96.755				
663	97.053				
664	97.246				
665	97.299				
666	97.164				
667	97.425				
668	97.699				
669	97.765				
670	97.553				
671	97.498				
672	97.303				
673	96.928				
674	96.753				
675	96.966				
676	96.955				
677	97.197				
678	97.529				
679	97.767				
680	97.785				
681	97.715				
682	97.891				
683	97.471				
684	97.592				
685	97.365				
686	97.544				
687	97.417				
688	97.765				
689	98.15				
690	98.388				
691	97.75				
692	97.699				
693	97.803				
694	97.617				
695	97.774				
696	97.464				
697	97.667				
698	97.49				
699	97.139				
700	97.398				
701	97.467				
702	97.618				
703	97.718				
704	98.112				
705	97.898				
706	98.065				
707	97.578				
708	97.537				
709	97.305				
710	97.199				
711	97.355				
712	97.409				
713	97.402				
714	97.703				
715	97.798				
716	97.777				
717	97.92				
718	97.827				
719	97.56				
720	97.256				
721	97.572				
722	97.58				
723	97.348				
724	97.47				
725	97.373				
726	97.421				
727	97.22				
728	97.238				
729	96.979				
730	96.643				
731	96.433				
732	96.252				
733	96.092				
734	95.823				
735	95.971				
736	96.118				
737	96.26				
738	96.46				
739	96.564				
740	96.662				
741	97.136				
742	97.312				
743	97.282				
744	97.398				
745	97.381				
746	97.258				
747	97.086				
748	97.046				
749	97.241				
750	97.141				
751	96.847				
752	97.022				
753	97.436				
754	97.294				
755	97.391				
756	97.517				
757	97.261				
758	97.055				
759	96.793				
760	96.463				
761	96.467				
762	96.245				
763	96.122				
764	96.3				
765	96.489				
766	96.844				
767	97.24				
768	97.665				
769	98.034				
770	98.071				
771	98.38				
772	98.509				
773	98.199				
774	97.967				
775	97.605				
776	97.263				
777	96.921				
778	96.738				
779	96.688				
780	96.792				
781	96.856				
782	97.137				
783	97.426				
784	97.711				
785	98.064				
786	98.39				
787	98.449				
788	98.347				
789	98.25				
790	98.158				
791	97.812				
792	97.373				
793	96.918				
794	96.329				
795	96.056				
796	96.062				
797	95.628				
798	95.858				
799	95.82				
800	96.225				
801	96.706				
802	96.997				
803	97.68				
804	97.729				
805	97.894				
806	98.097				
807	97.788				
808	97.3				
809	97.072				
810	96.457				
811	96.281				
812	95.991				
813	95.584				
814	95.274				
815	95.447				
816	95.447				
817	95.41				
818	95.643				
819	95.99				
820	96.613				
821	96.596				
822	96.786				
823	96.921				
824	96.826				
825	96.687				
826	96.495				
827	96.17				
828	95.89				
829	95.65				
830	95.439				
831	95.346				
832	95.435				
833	95.526				
834	95.803				
835	95.978				
836	96.228				
837	96.585				
838	96.791				
839	97.012				
840	97.246				
841	97.419				
842	97.387				
843	97.648				
844	97.04				
845	97.197				
846	96.843				
847	96.612				
848	96.461				
849	96.348				
850	96.25				
851	96.257				
852	96.335				
853	96.384				
854	96.838				
855	96.803				
856	97.114				
857	97.502				
858	97.736				
859	97.97				
860	98.03				
861	98.11				
862	98.002				
863	97.706				
864	97.56				
865	97.345				
866	97.208				
867	97.173				
868	97.088				
869	97.024				
870	97.086				
871	96.93				
872	97.011				
873	97.1				
874	97.243				
875	97.393				
876	97.545				
877	97.683				
878	97.665				
879	97.582				
880	97.474				
881	97.261				
882	97.008				
883	96.611				
884	96.482				
885	96.139				
886	95.904				
887	95.792				
888	95.639				
889	95.613				
890	95.601				
891	95.763				
892	95.873				
893	96.057				
894	96.126				
895	96.69				
896	96.998				
897	97.216				
898	97.659				
899	97.941				
900	97.834				
901	97.719				
902	97.518				
903	97.373				
904	97.311				
905	96.97				
906	96.38				
907	96.232				
908	95.833				
909	95.676				
910	95.582				
911	95.525				
912	95.43				
913	95.257				
914	95.573				
915	95.925				
916	96.186				
917	96.39				
918	96.758				
919	96.926				
920	97.184				
921	97.288				
922	97.354				
923	97.453				
924	97.299				
925	96.995				
926	96.756				
927	96.569				
928	96.297				
929	96.042				
930	95.858				
931	95.614				
932	95.53				
933	95.395				
934	95.328				
935	95.348				
936	95.507				
937	95.697				
938	95.848				
939	95.874				
940	96.078				
941	96.514				
942	96.634				
943	96.713				
944	97.041				
945	96.938				
946	97.018				
947	96.934				
948	96.872				
949	96.754				
950	96.761				
951	96.61				
952	96.475				
953	96.334				
954	96.512				
955	96.266				
956	96.422				
957	96.319				
958	96.373				
959	96.553				
960	96.642				
961	96.734				
962	96.873				
963	97.14				
964	97.191				
965	97.412				
966	97.31				
967	97.46				
968	97.495				
969	97.425				
970	97.319				
971	97.204				
972	97.006				
973	96.883				
974	96.855				
975	96.746				
976	96.753				
977	96.772				
978	96.768				
979	96.674				
980	96.454				
981	96.514				
982	96.505				
983	96.661				
984	96.52				
985	96.527				
986	96.576				
987	96.394				
988	96.434				
989	96.504				
990	96.14				
991	96.152				
992	96.053				
993	95.92				
994	95.66				
995	95.372				
996	95.243				
997	95.218				
998	95.319				
999	95.383				
1000	95.305				
1001	95.06				
1002	95.0				
1003	94.852				
1004	94.712				
1005	94.697				
1006	94.93				
1007	94.773				
1008	94.971				
1009	94.892				
1010	95.016				
1011	95.118				
1012	95.219				
1013	95.317				
1014	95.512				
1015	95.706				
1016	95.807				
1017	95.897				
1018	95.997				
1019	96.009				
1020	96.036				
1021	96.033				
1022	95.933				
1023	95.802				
1024	95.84				
1025	95.72				
1026	95.643				
1027	95.507				
1028	95.373				
1029	95.26				
1030	95.192				
1031	94.987				
1032	94.765				
1033	94.546				
1034	94.285				
1035	93.843				
1036	93.414				
1037	92.711				
1038	91.562				
1039	90.442				
1040	89.157				
1041	87.827				
1042	86.56				
1043	85.284				
1044	84.074				
1045	83.286				
1046	82.752				
1047	82.957				
1048	83.417				
1049	84.046				
1050	85.404				
1051	86.864				
1052	88.553				
1053	89.265				
1054	88.76				
1055	86.518				
1056	82.728				
1057	77.846				
1058	72.984				
1059	68.72				
1060	65.5				
1061	63.257				
1062	62.181				
1063	61.903				
1064	62.17				
1065	63.083				
1066	64.867				
1067	67.067				
1068	67.185				
1069	63.42				
1070	55.757				
1071	47.814				
1072	42.033				
1073	38.483				
1074	36.222				
1075	34.763				
1076	33.662				
1077	32.934				
1078	32.511				
1079	32.492				
1080	32.621				
1081	33.373				
1082	34.423				
1083	35.97				
1084	37.921				
1085	40.284				
1086	42.772				
1087	45.291				
1088	47.203				
1089	48.144				
1090	47.212				
1091	44.583				
1092	40.389				
1093	35.351				
1094	30.372				
1095	25.604				
1096	21.814				
1097	18.643				
1098	16.245				
1099	14.547				
1100	13.303				
