Wavelength	Transmittance	hex_color	Manufacturer	Name	Filter Number
300	84.436		Chroma		21004v20
301	85.393				
302	84.111				
303	83.593				
304	84.958				
305	85.839				
306	84.955				
307	84.443				
308	85.201				
309	85.352				
310	85.514				
311	84.916				
312	86.262				
313	85.291				
314	86.025				
315	86.157				
316	84.892				
317	86.453				
318	85.412				
319	84.901				
320	86.73				
321	86.098				
322	85.996				
323	85.951				
324	87.028				
325	86.441				
326	85.847				
327	85.896				
328	86.696				
329	86.595				
330	87.055				
331	86.287				
332	86.095				
333	86.825				
334	86.935				
335	87.196				
336	86.369				
337	86.787				
338	86.781				
339	85.966				
340	86.739				
341	86.34				
342	87.204				
343	86.585				
344	87.413				
345	86.663				
346	87.499				
347	87.286				
348	87.108				
349	87.32				
350	87.404				
351	87.135				
352	87.148				
353	86.951				
354	86.708				
355	87.239				
356	87.327				
357	87.762				
358	87.682				
359	87.753				
360	87.323				
361	87.61				
362	87.586				
363	87.94				
364	87.797				
365	87.705				
366	87.561				
367	87.775				
368	88.34				
369	88.011				
370	87.872				
371	88.002				
372	88.082				
373	88.29				
374	88.154				
375	88.245				
376	88.202				
377	88.144				
378	88.249				
379	88.48				
380	88.407				
381	88.427				
382	88.481				
383	88.406				
384	88.55				
385	88.525				
386	88.502				
387	88.701				
388	88.544				
389	88.664				
390	88.692				
391	88.701				
392	88.704				
393	88.736				
394	88.69				
395	88.982				
396	88.772				
397	88.748				
398	88.891				
399	88.882				
400	88.951				
401	88.902				
402	88.935				
403	89.051				
404	88.927				
405	88.866				
406	89.084				
407	88.956				
408	88.959				
409	88.953				
410	89.008				
411	88.997				
412	89.054				
413	89.054				
414	89.047				
415	89.028				
416	89.061				
417	89.147				
418	89.012				
419	89.086				
420	89.127				
421	89.136				
422	89.165				
423	89.152				
424	89.156				
425	89.187				
426	89.287				
427	89.182				
428	89.163				
429	89.144				
430	89.209				
431	89.215				
432	89.228				
433	89.245				
434	89.239				
435	89.256				
436	89.234				
437	89.197				
438	89.254				
439	89.219				
440	89.236				
441	89.214				
442	89.231				
443	89.224				
444	89.292				
445	89.287				
446	89.318				
447	89.31				
448	89.288				
449	89.307				
450	89.302				
451	89.303				
452	89.281				
453	89.333				
454	89.324				
455	89.303				
456	89.326				
457	89.33				
458	89.319				
459	89.319				
460	89.358				
461	89.341				
462	89.339				
463	89.341				
464	89.342				
465	89.329				
466	89.366				
467	89.386				
468	89.388				
469	89.396				
470	89.372				
471	89.369				
472	89.346				
473	89.357				
474	89.36				
475	89.366				
476	89.335				
477	89.355				
478	89.348				
479	89.363				
480	89.361				
481	89.363				
482	89.341				
483	89.356				
484	89.362				
485	89.355				
486	89.377				
487	89.369				
488	89.352				
489	89.378				
490	89.367				
491	89.381				
492	89.39				
493	89.397				
494	89.38				
495	89.394				
496	89.371				
497	89.383				
498	89.379				
499	89.362				
500	89.362				
501	89.37				
502	89.352				
503	89.351				
504	89.348				
505	89.373				
506	89.371				
507	89.369				
508	89.372				
509	89.372				
510	89.376				
511	89.373				
512	89.375				
513	89.373				
514	89.359				
515	89.361				
516	89.347				
517	89.349				
518	89.326				
519	89.336				
520	89.326				
521	89.33				
522	89.327				
523	89.315				
524	89.323				
525	89.312				
526	89.316				
527	89.308				
528	89.312				
529	89.302				
530	89.3				
531	89.278				
532	89.283				
533	89.285				
534	89.273				
535	89.29				
536	89.265				
537	89.283				
538	89.274				
539	89.258				
540	89.254				
541	89.249				
542	89.247				
543	89.241				
544	89.24				
545	89.232				
546	89.224				
547	89.228				
548	89.212				
549	89.215				
550	89.196				
551	89.198				
552	89.19				
553	89.173				
554	89.18				
555	89.162				
556	89.18				
557	89.172				
558	89.15				
559	89.131				
560	89.158				
561	89.13				
562	89.125				
563	89.133				
564	89.118				
565	89.113				
566	89.105				
567	89.102				
568	89.078				
569	89.08				
570	89.066				
571	89.044				
572	89.042				
573	89.037				
574	89.015				
575	89.001				
576	88.999				
577	88.97				
578	88.961				
579	88.933				
580	88.934				
581	88.923				
582	88.916				
583	88.9				
584	88.873				
585	88.888				
586	88.853				
587	88.826				
588	88.784				
589	88.813				
590	88.819				
591	88.804				
592	88.821				
593	88.816				
594	88.83				
595	88.807				
596	88.759				
597	88.762				
598	88.794				
599	88.794				
600	88.8				
601	88.81				
602	88.808				
603	88.8				
604	88.808				
605	88.826				
606	88.832				
607	88.816				
608	88.816				
609	88.809				
610	88.809				
611	88.798				
612	88.8				
613	88.764				
614	88.742				
615	88.725				
616	88.705				
617	88.685				
618	88.662				
619	88.657				
620	88.647				
621	88.617				
622	88.612				
623	88.588				
624	88.561				
625	88.525				
626	88.504				
627	88.493				
628	88.49				
629	88.479				
630	88.461				
631	88.401				
632	88.394				
633	88.396				
634	88.356				
635	88.371				
636	88.322				
637	88.297				
638	88.291				
639	88.273				
640	88.286				
641	88.257				
642	88.255				
643	88.255				
644	88.265				
645	88.232				
646	88.226				
647	88.202				
648	88.198				
649	88.196				
650	88.167				
651	88.178				
652	88.173				
653	88.174				
654	88.16				
655	88.153				
656	88.141				
657	88.122				
658	88.133				
659	88.117				
660	88.104				
661	88.087				
662	88.099				
663	88.091				
664	88.062				
665	88.061				
666	88.056				
667	88.031				
668	88.009				
669	87.998				
670	87.998				
671	87.969				
672	87.96				
673	87.954				
674	87.926				
675	87.932				
676	87.906				
677	87.886				
678	87.872				
679	87.888				
680	87.823				
681	87.81				
682	87.8				
683	87.78				
684	87.77				
685	87.762				
686	87.733				
687	87.733				
688	87.76				
689	87.702				
690	87.677				
691	87.696				
692	87.652				
693	87.644				
694	87.612				
695	87.568				
696	87.568				
697	87.547				
698	87.527				
699	87.505				
700	87.472				
701	87.459				
702	87.452				
703	87.414				
704	87.41				
705	87.385				
706	87.35				
707	87.311				
708	87.314				
709	87.289				
710	87.224				
711	87.231				
712	87.222				
713	87.188				
714	87.189				
715	87.145				
716	87.14				
717	87.101				
718	87.086				
719	87.059				
720	86.847				
721	86.82				
722	86.848				
723	86.783				
724	86.732				
725	86.739				
726	86.741				
727	86.661				
728	86.659				
729	86.685				
730	86.565				
731	86.606				
732	86.557				
733	86.539				
734	86.483				
735	86.445				
736	86.419				
737	86.393				
738	86.417				
739	86.377				
740	86.348				
741	86.279				
742	86.301				
743	86.263				
744	86.292				
745	86.22				
746	86.216				
747	86.185				
748	86.121				
749	86.124				
750	86.041				
751	86.052				
752	86.066				
753	86.012				
754	85.964				
755	85.962				
756	85.948				
757	85.87				
758	85.877				
759	85.798				
760	85.821				
761	85.803				
762	85.767				
763	85.68				
764	85.668				
765	85.655				
766	85.629				
767	85.591				
768	85.548				
769	85.533				
770	85.509				
771	85.479				
772	85.44				
773	85.423				
774	85.363				
775	85.365				
776	85.299				
777	85.283				
778	85.229				
779	85.222				
780	85.259				
781	85.181				
782	85.133				
783	85.088				
784	85.121				
785	85.105				
786	85.014				
787	85.028				
788	84.958				
789	84.962				
790	84.89				
791	84.896				
792	84.814				
793	84.883				
794	84.796				
795	84.759				
796	84.763				
797	84.7				
798	84.702				
799	84.694				
800	84.702				
801	84.629				
802	84.639				
803	84.593				
804	84.535				
805	84.538				
806	84.463				
807	84.508				
808	84.381				
809	84.488				
810	84.429				
811	84.364				
812	84.424				
813	84.412				
814	84.392				
815	84.345				
816	84.43				
817	84.387				
818	84.382				
819	84.378				
820	84.323				
821	84.322				
822	84.333				
823	84.351				
824	84.319				
825	84.316				
826	84.337				
827	84.339				
828	84.355				
829	84.353				
830	84.35				
831	84.316				
832	84.39				
833	84.402				
834	84.365				
835	84.357				
836	84.417				
837	84.418				
838	84.441				
839	84.488				
840	84.481				
841	84.515				
842	84.529				
843	84.549				
844	84.581				
845	84.608				
846	84.603				
847	84.645				
848	84.683				
849	84.721				
850	84.765				
851	84.812				
852	84.838				
853	84.855				
854	84.886				
855	84.969				
856	84.989				
857	85.028				
858	85.076				
859	85.108				
860	85.176				
861	85.219				
862	85.273				
863	85.302				
864	85.371				
865	85.401				
866	85.474				
867	85.489				
868	85.567				
869	85.637				
870	85.676				
871	85.75				
872	85.801				
873	85.853				
874	85.907				
875	85.978				
876	86.023				
877	86.088				
878	86.148				
879	86.211				
880	86.265				
881	86.333				
882	86.379				
883	86.461				
884	86.518				
885	86.578				
886	86.624				
887	86.707				
888	86.761				
889	86.83				
890	86.897				
891	86.975				
892	87.03				
893	87.091				
894	87.154				
895	87.219				
896	87.287				
897	87.351				
898	87.401				
899	87.468				
900	87.535				
901	87.585				
902	87.658				
903	87.721				
904	87.791				
905	87.85				
906	87.93				
907	87.969				
908	88.041				
909	88.099				
910	88.161				
911	88.227				
912	88.29				
913	88.35				
914	88.412				
915	88.474				
916	88.533				
917	88.586				
918	88.645				
919	88.703				
920	88.762				
921	88.819				
922	88.875				
923	88.93				
924	88.989				
925	89.042				
926	89.098				
927	89.152				
928	89.206				
929	89.257				
930	89.309				
931	89.363				
932	89.421				
933	89.473				
934	89.525				
935	89.579				
936	89.635				
937	89.692				
938	89.739				
939	89.783				
940	89.839				
941	89.894				
942	89.945				
943	89.992				
944	90.046				
945	90.098				
946	90.139				
947	90.189				
948	90.24				
949	90.286				
950	90.333				
951	90.374				
952	90.424				
953	90.468				
954	90.514				
955	90.554				
956	90.597				
957	90.639				
958	90.679				
959	90.728				
960	90.764				
961	90.807				
962	90.849				
963	90.898				
964	90.941				
965	90.973				
966	91.009				
967	91.048				
968	91.087				
969	91.131				
970	91.165				
971	91.206				
972	91.239				
973	91.286				
974	91.324				
975	91.367				
976	91.402				
977	91.44				
978	91.47				
979	91.51				
980	91.54				
981	91.583				
982	91.624				
983	91.655				
984	91.693				
985	91.729				
986	91.764				
987	91.791				
988	91.821				
989	91.859				
990	91.892				
991	91.923				
992	91.957				
993	91.983				
994	92.015				
995	92.047				
996	92.07				
997	92.102				
998	92.141				
999	92.172				
1000	92.198				
1001	92.23				
1002	92.257				
1003	92.28				
1004	92.319				
1005	92.34				
1006	92.371				
1007	92.396				
1008	92.427				
1009	92.455				
1010	92.481				
1011	92.504				
1012	92.539				
1013	92.562				
1014	92.587				
1015	92.61				
1016	92.642				
1017	92.669				
1018	92.695				
1019	92.721				
1020	92.74				
1021	92.76				
1022	92.784				
1023	92.815				
1024	92.831				
1025	92.862				
1026	92.88				
1027	92.904				
1028	92.919				
1029	92.946				
1030	92.965				
1031	92.992				
1032	93.006				
1033	93.022				
1034	93.038				
1035	93.068				
1036	93.085				
1037	93.106				
1038	93.123				
1039	93.143				
1040	93.168				
1041	93.179				
1042	93.201				
1043	93.215				
1044	93.246				
1045	93.251				
1046	93.262				
1047	93.282				
1048	93.312				
1049	93.313				
1050	93.034				
1051	93.148				
1052	93.085				
1053	93.132				
1054	93.167				
1055	93.176				
1056	93.221				
1057	93.276				
1058	93.338				
1059	93.305				
1060	93.303				
1061	93.364				
1062	93.377				
1063	93.388				
1064	93.428				
1065	93.375				
1066	93.471				
1067	93.489				
1068	93.507				
1069	93.509				
1070	93.552				
1071	93.564				
1072	93.563				
1073	93.565				
1074	93.599				
1075	93.632				
1076	93.663				
1077	93.69				
1078	93.745				
1079	93.731				
1080	93.783				
1081	93.765				
1082	93.826				
1083	93.823				
1084	93.757				
1085	93.799				
1086	93.916				
1087	93.872				
1088	93.883				
1089	93.928				
1090	93.921				
1091	93.972				
1092	93.981				
1093	93.985				
1094	93.973				
1095	93.989				
1096	94.054				
1097	94.08				
1098	94.083				
1099	94.085				
1100	94.119				
