Wavelength	Transmittance	hex_color	Manufacturer	Name	Filter Number
350	0.02		Chroma		T550lpxr
351	0.017				
352	0.014				
353	0.022				
354	0.026				
355	0.03				
356	0.049				
357	0.073				
358	0.119				
359	0.18				
360	0.278				
361	0.32				
362	0.241				
363	0.125				
364	0.069				
365	0.051				
366	0.04				
367	0.037				
368	0.017				
369	0.015				
370	0.016				
371	0.016				
372	0.005				
373	0.008				
374	0.006				
375	0.007				
376	0.002				
377	0.015				
378	0.02				
379	0.018				
380	0.004				
381	0.006				
382	0.005				
383	0.0				
384	0.002				
385	0.014				
386	0.013				
387	0.135				
388	0.157				
389	0.082				
390	0.055				
391	0.073				
392	0.079				
393	0.144				
394	0.11				
395	0.109				
396	0.085				
397	0.065				
398	0.087				
399	0.079				
400	0.23				
401	0.25				
402	0.155				
403	0.065				
404	0.102				
405	0.208				
406	0.199				
407	0.062				
408	0.024				
409	0.008				
410	0.017				
411	0.018				
412	0.007				
413	0.024				
414	0.012				
415	0.023				
416	0.024				
417	0.024				
418	0.016				
419	0.003				
420	0.016				
421	0.028				
422	0.016				
423	0.03				
424	0.018				
425	0.021				
426	0.021				
427	0.02				
428	0.022				
429	0.004				
430	0.01				
431	0.03				
432	0.053				
433	0.067				
434	0.08				
435	0.094				
436	0.104				
437	0.167				
438	0.189				
439	0.211				
440	0.181				
441	0.16				
442	0.173				
443	0.148				
444	0.109				
445	0.044				
446	0.02				
447	0.007				
448	0.01				
449	0.006				
450	0.025				
451	0.013				
452	0.019				
453	0.037				
454	0.094				
455	0.12				
456	0.081				
457	0.034				
458	0.018				
459	0.011				
460	0.019				
461	0.012				
462	0.022				
463	0.039				
464	0.069				
465	0.108				
466	0.099				
467	0.061				
468	0.04				
469	0.031				
470	0.023				
471	0.022				
472	0.03				
473	0.034				
474	0.052				
475	0.063				
476	0.099				
477	0.152				
478	0.218				
479	0.297				
480	0.388				
481	0.444				
482	0.486				
483	0.543				
484	0.605				
485	0.7				
486	0.818				
487	0.908				
488	0.9				
489	0.795				
490	0.631				
491	0.49				
492	0.389				
493	0.336				
494	0.336				
495	0.375				
496	0.518				
497	0.855				
498	1.406				
499	1.874				
500	1.958				
501	1.521				
502	0.901				
503	0.562				
504	0.396				
505	0.353				
506	0.368				
507	0.412				
508	0.524				
509	0.802				
510	1.207				
511	1.35				
512	0.998				
513	0.532				
514	0.284				
515	0.173				
516	0.12				
517	0.097				
518	0.081				
519	0.074				
520	0.066				
521	0.071				
522	0.074				
523	0.085				
524	0.096				
525	0.12				
526	0.153				
527	0.21				
528	0.291				
529	0.406				
530	0.562				
531	0.732				
532	0.885				
533	0.969				
534	0.996				
535	0.989				
536	0.994				
537	1.028				
538	1.111				
539	1.258				
540	1.489				
541	1.879				
542	2.511				
543	3.527				
544	5.145				
545	8.016				
546	12.554				
547	19.415				
548	27.918				
549	36.922				
550	44.539				
551	50.465				
552	58.029				
553	69.706				
554	84.337				
555	94.44				
556	97.203				
557	96.196				
558	94.411				
559	93.054				
560	92.342				
561	92.449				
562	93.222				
563	94.357				
564	95.544				
565	96.333				
566	97.033				
567	97.302				
568	97.435				
569	97.391				
570	97.313				
571	97.236				
572	97.304				
573	97.413				
574	97.635				
575	97.817				
576	98.085				
577	98.299				
578	98.467				
579	98.552				
580	98.556				
581	98.493				
582	98.343				
583	98.075				
584	97.968				
585	97.895				
586	97.838				
587	97.799				
588	97.931				
589	98.046				
590	98.079				
591	98.057				
592	97.963				
593	97.849				
594	97.672				
595	97.527				
596	97.444				
597	97.417				
598	97.419				
599	97.48				
600	97.522				
601	98.124				
602	98.867				
603	98.877				
604	98.518				
605	98.104				
606	97.958				
607	97.939				
608	97.957				
609	98.144				
610	98.383				
611	98.605				
612	98.791				
613	99.067				
614	99.259				
615	99.308				
616	99.276				
617	99.232				
618	99.091				
619	98.826				
620	98.58				
621	98.439				
622	98.373				
623	98.314				
624	98.36				
625	98.515				
626	98.776				
627	99.018				
628	99.173				
629	99.22				
630	99.144				
631	98.915				
632	98.688				
633	98.265				
634	97.833				
635	97.437				
636	97.086				
637	96.835				
638	96.75				
639	96.783				
640	96.965				
641	97.23				
642	97.638				
643	97.989				
644	98.326				
645	98.753				
646	98.927				
647	99.07				
648	99.134				
649	99.057				
650	98.749				
651	98.534				
652	98.285				
653	98.075				
654	97.909				
655	97.932				
656	97.934				
657	98.013				
658	98.194				
659	98.357				
660	98.594				
661	98.713				
662	98.822				
663	98.861				
664	98.745				
665	98.543				
666	98.356				
667	98.181				
668	98.01				
669	97.846				
670	97.782				
671	97.792				
672	97.923				
673	98.057				
674	98.288				
675	98.481				
676	98.611				
677	98.724				
678	98.823				
679	98.799				
680	98.73				
681	98.594				
682	98.481				
683	98.242				
684	98.124				
685	97.988				
686	97.877				
687	97.829				
688	97.859				
689	97.838				
690	97.89				
691	97.987				
692	98.116				
693	98.312				
694	98.553				
695	98.7				
696	98.817				
697	98.896				
698	98.895				
699	98.82				
700	98.72				
701	98.553				
702	98.303				
703	98.068				
704	97.814				
705	97.568				
706	97.414				
707	97.239				
708	97.14				
709	97.125				
710	97.167				
711	97.261				
712	97.391				
713	97.539				
714	97.627				
715	97.723				
716	97.87				
717	97.946				
718	98.014				
719	98.075				
720	98.126				
721	98.174				
722	98.203				
723	98.256				
724	98.267				
725	98.267				
726	98.28				
727	98.329				
728	98.389				
729	98.436				
730	98.48				
731	98.538				
732	98.577				
733	98.593				
734	98.561				
735	98.538				
736	98.471				
737	98.429				
738	98.349				
739	98.238				
740	98.162				
741	98.04				
742	97.935				
743	97.905				
744	97.906				
745	97.925				
746	97.985				
747	98.0				
748	98.047				
749	98.102				
750	98.148				
751	98.169				
752	98.24				
753	98.222				
754	98.165				
755	98.104				
756	98.014				
757	97.898				
758	97.792				
759	97.735				
760	97.623				
761	97.498				
762	97.445				
763	97.515				
764	97.58				
765	97.71				
766	97.758				
767	98.021				
768	98.354				
769	98.605				
770	98.875				
771	99.07				
772	99.163				
773	99.132				
774	98.955				
775	98.58				
776	97.964				
777	97.17				
778	96.188				
779	95.132				
780	93.905				
781	92.584				
782	91.22				
783	89.878				
784	88.584				
785	87.411				
786	86.282				
787	85.35				
788	84.619				
789	84.031				
790	83.599				
791	83.411				
792	83.442				
793	83.642				
794	84.035				
795	84.545				
796	85.031				
797	85.745				
798	86.821				
799	87.952				
800	89.116				
801	90.366				
802	91.645				
803	92.836				
804	94.039				
805	95.076				
806	95.852				
807	96.35				
808	96.565				
809	96.389				
810	95.82				
811	94.964				
812	93.881				
813	92.565				
814	91.084				
815	89.565				
816	88.067				
817	86.648				
818	85.332				
819	84.176				
820	83.227				
821	82.464				
822	81.92				
823	81.558				
824	81.42				
825	81.474				
826	81.766				
827	82.227				
828	82.904				
829	83.726				
830	84.669				
831	85.803				
832	87.113				
833	88.444				
834	89.776				
835	91.1				
836	92.331				
837	93.406				
838	94.313				
839	94.802				
840	94.954				
841	94.65				
842	94.074				
843	93.121				
844	91.801				
845	90.468				
846	88.951				
847	87.176				
848	85.565				
849	83.98				
850	82.542				
851	81.193				
852	80.002				
853	79.059				
854	78.258				
855	77.681				
856	77.389				
857	77.171				
858	77.18				
859	77.262				
860	77.384				
861	77.509				
862	77.595				
863	77.603				
864	77.578				
865	77.51				
866	77.408				
867	77.35				
868	77.291				
869	77.399				
870	77.663				
871	78.264				
872	79.131				
873	80.39				
874	82.276				
875	84.61				
876	87.291				
877	89.054				
878	88.459				
879	84.188				
880	75.788				
881	65.968				
882	56.179				
883	48.768				
884	43.108				
885	39.28				
886	36.302				
887	34.139				
888	32.357				
889	30.96				
890	29.903				
891	29.029				
892	28.417				
893	27.954				
894	27.691				
895	27.6				
896	27.671				
897	27.948				
898	28.425				
899	29.1				
900	30.076				
901	31.295				
902	32.727				
903	34.518				
904	36.589				
905	38.776				
906	41.216				
907	43.61				
908	45.591				
909	46.886				
910	46.893				
911	45.452				
912	42.333				
913	37.968				
914	33.207				
915	28.041				
916	23.254				
917	19.059				
918	15.541				
919	12.785				
920	10.399				
921	8.49				
922	6.972				
923	5.815				
924	4.825				
925	4.031				
926	3.387				
927	2.843				
928	2.452				
929	2.066				
930	1.789				
931	1.54				
932	1.335				
933	1.159				
934	1.015				
935	0.89				
936	0.786				
937	0.695				
938	0.618				
939	0.548				
940	0.485				
941	0.435				
942	0.39				
943	0.349				
944	0.314				
945	0.281				
946	0.254				
947	0.226				
948	0.206				
949	0.192				
950	0.176				
951	0.157				
952	0.14				
953	0.128				
954	0.111				
955	0.105				
956	0.101				
957	0.091				
958	0.081				
959	0.074				
960	0.07				
961	0.067				
962	0.061				
963	0.057				
964	0.054				
965	0.051				
966	0.047				
967	0.042				
968	0.041				
969	0.033				
970	0.037				
971	0.034				
972	0.031				
973	0.029				
974	0.027				
975	0.027				
976	0.025				
977	0.024				
978	0.024				
979	0.019				
980	0.021				
981	0.022				
982	0.021				
983	0.017				
984	0.019				
985	0.018				
986	0.016				
987	0.015				
988	0.015				
989	0.014				
990	0.015				
991	0.012				
992	0.014				
993	0.01				
994	0.013				
995	0.015				
996	0.008				
997	0.008				
998	0.014				
999	0.009				
1000	0.011				
