Wavelength	Transmittance	hex_color	Manufacturer	Name	Filter Number
300	0.0		Chroma		ZET405/488m
301	0.0				
302	0.0				
303	0.0				
304	0.0				
305	0.0				
306	0.0				
307	0.0				
308	0.0				
309	0.0				
310	0.0				
311	0.0				
312	0.0				
313	0.0				
314	0.0				
315	0.0				
316	0.0				
317	0.0				
318	0.0				
319	0.0				
320	0.0				
321	0.0				
322	0.0				
323	0.0				
324	0.0				
325	0.0				
326	0.0				
327	0.0				
328	0.0				
329	0.0				
330	0.0				
331	0.0				
332	0.0				
333	0.0				
334	0.0				
335	0.0				
336	0.0				
337	0.0				
338	0.0				
339	0.0				
340	0.0				
341	0.0				
342	0.0				
343	0.0				
344	0.0				
345	0.0				
346	0.0				
347	0.0				
348	0.0				
349	0.0				
350	0.0				
351	0.0				
352	0.0				
353	0.0				
354	0.0				
355	0.0				
356	0.0				
357	0.0				
358	0.0				
359	0.0				
360	0.0				
361	0.0				
362	0.0				
363	0.0				
364	0.0				
365	0.0				
366	0.0				
367	0.0				
368	0.0				
369	0.0				
370	0.0				
371	0.0				
372	0.0				
373	0.0				
374	0.0				
375	0.0				
376	0.0				
377	0.0				
378	0.0				
379	0.0				
380	0.0				
381	0.0				
382	0.0				
383	0.0				
384	0.0				
385	0.0				
386	0.0				
387	0.0				
388	0.0				
389	0.0				
390	0.0				
391	0.0				
392	0.0				
393	0.0				
394	0.0				
395	0.0				
396	0.0				
397	0.0				
398	0.0				
399	0.0				
400	0.0				
401	0.0				
402	0.0				
403	0.0				
404	0.0				
405	0.0				
406	0.0				
407	0.0				
408	0.0				
409	0.0				
410	0.0				
411	0.0				
412	0.0				
413	0.0				
414	0.0				
415	0.0				
416	0.003				
417	0.046				
418	10.349				
419	75.505				
420	95.852				
421	96.545				
422	97.83				
423	97.89				
424	97.408				
425	95.5				
426	95.612				
427	96.027				
428	95.95				
429	96.839				
430	95.75				
431	95.604				
432	97.735				
433	97.786				
434	96.889				
435	97.022				
436	98.05				
437	98.339				
438	98.242				
439	95.806				
440	93.663				
441	95.145				
442	97.268				
443	98.203				
444	98.268				
445	96.914				
446	93.096				
447	92.478				
448	96.191				
449	98.052				
450	98.198				
451	98.329				
452	97.624				
453	98.041				
454	97.887				
455	95.916				
456	93.651				
457	93.796				
458	96.079				
459	97.32				
460	96.937				
461	96.959				
462	97.667				
463	97.07				
464	97.541				
465	98.19				
466	95.004				
467	92.78				
468	95.176				
469	96.429				
470	95.279				
471	96.518				
472	95.785				
473	96.08				
474	94.209				
475	74.075				
476	53.027				
477	3.957				
478	0.116				
479	0.004				
480	0.0				
481	0.0				
482	0.0				
483	0.0				
484	0.0				
485	0.0				
486	0.0				
487	0.0				
488	0.0				
489	0.0				
490	0.0				
491	0.0				
492	0.0				
493	0.0				
494	0.0				
495	0.0				
496	0.0				
497	0.0				
498	0.002				
499	0.031				
500	1.73				
501	30.126				
502	64.815				
503	86.75				
504	95.479				
505	96.114				
506	94.806				
507	93.341				
508	90.324				
509	91.651				
510	95.23				
511	95.83				
512	97.324				
513	98.164				
514	97.716				
515	97.551				
516	95.521				
517	91.903				
518	91.284				
519	94.703				
520	97.507				
521	95.951				
522	93.789				
523	94.803				
524	96.812				
525	97.864				
526	97.932				
527	97.061				
528	96.834				
529	97.578				
530	96.453				
531	92.649				
532	89.243				
533	89.528				
534	93.172				
535	97.151				
536	97.219				
537	93.684				
538	91.603				
539	93.105				
540	95.456				
541	96.696				
542	97.323				
543	98.039				
544	98.243				
545	97.43				
546	96.749				
547	96.867				
548	97.298				
549	98.219				
550	98.539				
551	98.079				
552	97.592				
553	96.795				
554	96.916				
555	97.186				
556	97.004				
557	96.598				
558	95.467				
559	94.806				
560	94.97				
561	95.968				
562	97.351				
563	98.146				
564	98.146				
565	98.081				
566	98.398				
567	98.623				
568	97.496				
569	95.311				
570	93.698				
571	93.876				
572	96.193				
573	98.231				
574	98.239				
575	96.416				
576	94.465				
577	94.7				
578	96.797				
579	98.832				
580	99.167				
581	98.341				
582	97.559				
583	98.032				
584	99.111				
585	98.81				
586	96.401				
587	93.915				
588	93.528				
589	95.457				
590	98.274				
591	99.406				
592	98.809				
593	98.217				
594	98.232				
595	98.749				
596	99.358				
597	99.696				
598	99.311				
599	99.079				
600	98.819				
601	98.985				
602	99.365				
603	99.33				
604	98.276				
605	96.487				
606	95.617				
607	96.859				
608	98.027				
609	98.701				
610	98.364				
611	97.977				
612	98.424				
613	99.164				
614	99.4				
615	98.651				
616	97.981				
617	97.357				
618	97.268				
619	97.542				
620	97.914				
621	98.581				
622	99.08				
623	99.075				
624	98.503				
625	97.456				
626	96.649				
627	96.662				
628	97.328				
629	98.213				
630	98.989				
631	99.1				
632	99.119				
633	98.683				
634	98.272				
635	98.154				
636	98.33				
637	98.656				
638	98.901				
639	99.161				
640	98.748				
641	98.792				
642	98.922				
643	98.777				
644	98.909				
645	98.968				
646	98.96				
647	98.869				
648	98.577				
649	98.258				
650	97.917				
651	97.173				
652	96.123				
653	95.343				
654	94.747				
655	94.813				
656	95.582				
657	97.153				
658	98.488				
659	99.05				
660	98.78				
661	97.559				
662	96.062				
663	94.981				
664	95.029				
665	95.988				
666	97.427				
667	98.742				
668	98.884				
669	97.973				
670	96.516				
671	95.108				
672	94.526				
673	94.488				
674	95.257				
675	96.035				
676	96.72				
677	97.156				
678	97.549				
679	97.649				
680	97.56				
681	97.663				
682	97.932				
683	98.002				
684	97.772				
685	98.136				
686	98.132				
687	98.424				
688	98.649				
689	98.634				
690	98.511				
691	97.855				
692	97.223				
693	96.732				
694	96.733				
695	97.284				
696	98.047				
697	98.522				
698	98.482				
699	98.006				
700	97.196				
701	96.897				
702	97.08				
703	97.158				
704	97.742				
705	98.208				
706	98.531				
707	98.591				
708	98.368				
709	98.229				
710	98.378				
711	98.321				
712	98.55				
713	98.325				
714	98.388				
715	98.593				
716	98.496				
717	98.642				
718	98.708				
719	98.561				
720	98.108				
721	97.101				
722	96.007				
723	94.892				
724	94.287				
725	94.32				
726	94.466				
727	94.596				
728	94.995				
729	94.61				
730	94.549				
731	94.162				
732	94.159				
733	94.343				
734	95.161				
735	96.434				
736	97.652				
737	98.445				
738	99.162				
739	99.196				
740	98.829				
741	98.68				
742	98.692				
743	98.177				
744	98.191				
745	98.286				
746	98.013				
747	98.192				
748	98.246				
749	98.528				
750	98.059				
751	97.351				
752	96.866				
753	95.843				
754	95.134				
755	94.583				
756	95.239				
757	95.797				
758	96.176				
759	96.702				
760	97.104				
761	97.097				
762	96.792				
763	96.859				
764	97.237				
765	97.509				
766	98.149				
767	98.386				
768	98.884				
769	99.035				
770	98.693				
771	98.299				
772	98.197				
773	98.082				
774	97.847				
775	97.394				
776	97.427				
777	97.661				
778	98.046				
779	97.897				
780	98.865				
781	98.335				
782	98.44				
783	98.138				
784	97.921				
785	97.989				
786	98.228				
787	98.539				
788	98.649				
789	98.716				
790	98.512				
791	98.112				
792	98.029				
793	98.257				
794	97.225				
795	97.105				
796	96.565				
797	96.21				
798	96.499				
799	96.601				
800	97.369				
801	98.257				
802	98.913				
803	99.029				
804	98.375				
805	97.275				
806	96.286				
807	95.887				
808	96.197				
809	95.87				
810	92.594				
811	84.629				
812	72.791				
813	60.067				
814	48.895				
815	40.729				
816	35.468				
817	32.923				
818	32.976				
819	35.296				
820	39.409				
821	43.059				
822	43.132				
823	38.15				
824	30.84				
825	24.065				
826	18.942				
827	15.501				
828	13.498				
829	12.591				
830	12.398				
831	12.528				
832	12.503				
833	11.904				
834	10.72				
835	9.216				
836	7.743				
837	6.571				
838	5.691				
839	5.095				
840	4.762				
841	4.616				
842	4.649				
843	4.822				
844	5.059				
845	5.221				
846	5.173				
847	4.889				
848	4.444				
849	3.968				
850	3.558				
851	3.235				
852	3.009				
853	2.878				
854	2.842				
855	2.915				
856	3.108				
857	3.42				
858	3.817				
859	4.269				
860	4.69				
861	5.011				
862	5.206				
863	5.292				
864	5.343				
865	5.448				
866	5.684				
867	6.148				
868	6.923				
869	8.07				
870	9.707				
871	11.93				
872	14.989				
873	19.064				
874	24.656				
875	32.807				
876	44.397				
877	60.342				
878	77.202				
879	83.912				
880	77.706				
881	66.73				
882	59.08				
883	56.84				
884	60.878				
885	71.951				
886	87.542				
887	94.178				
888	79.473				
889	57.53				
890	42.095				
891	34.032				
892	32.275				
893	36.078				
894	43.982				
895	41.57				
896	26.102				
897	14.34				
898	8.233				
899	5.022				
900	3.468				
901	2.207				
902	1.122				
903	0.667				
904	0.452				
905	0.342				
906	0.28				
907	0.247				
908	0.232				
909	0.232				
910	0.247				
911	0.279				
912	0.334				
913	0.418				
914	0.531				
915	0.663				
916	0.794				
917	0.902				
918	0.955				
919	0.936				
920	0.85				
921	0.726				
922	0.591				
923	0.468				
924	0.38				
925	0.32				
926	0.28				
927	0.255				
928	0.24				
929	0.232				
930	0.229				
931	0.23				
932	0.235				
933	0.244				
934	0.256				
935	0.271				
936	0.293				
937	0.319				
938	0.354				
939	0.4				
940	0.461				
941	0.543				
942	0.659				
943	0.824				
944	1.067				
945	1.437				
946	1.984				
947	2.709				
948	3.907				
949	6.109				
950	10.366				
951	20.062				
952	44.785				
953	84.873				
954	84.224				
955	54.071				
956	36.009				
957	27.321				
958	23.391				
959	22.126				
960	22.758				
961	25.231				
962	30.03				
963	37.437				
964	48.083				
965	60.416				
966	68.203				
967	67.141				
968	59.027				
969	50.195				
970	43.583				
971	39.746				
972	38.643				
973	40.024				
974	44.056				
975	50.883				
976	59.025				
977	64.873				
978	62.544				
979	52.484				
980	40.465				
981	30.476				
982	23.866				
983	19.541				
984	16.939				
985	15.503				
986	15.044				
987	15.429				
988	16.795				
989	19.381				
990	23.745				
991	30.939				
992	41.623				
993	55.512				
994	66.451				
995	65.008				
996	53.553				
997	41.08				
998	32.061				
999	26.201				
1000	22.636				
1001	20.723				
1002	20.002				
1003	20.371				
1004	21.739				
1005	24.303				
1006	28.235				
1007	34.094				
1008	41.5				
1009	50.438				
1010	59.049				
1011	64.661				
1012	65.778				
1013	63.294				
1014	59.283				
1015	55.72				
1016	53.313				
1017	52.499				
1018	53.182				
1019	55.455				
1020	59.249				
1021	64.046				
1022	69.629				
1023	75.043				
1024	79.338				
1025	82.034				
1026	83.084				
1027	82.99				
1028	82.464				
1029	82.159				
1030	82.24				
1031	82.785				
1032	83.284				
1033	83.265				
1034	81.96				
1035	79.16				
1036	74.877				
1037	70.022				
1038	65.183				
1039	60.967				
1040	58.024				
1041	56.481				
1042	56.485				
1043	58.309				
1044	61.989				
1045	67.553				
1046	74.919				
1047	82.555				
1048	88.278				
1049	88.828				
1050	82.944				
1051	72.723				
1052	60.917				
1053	50.747				
1054	42.877				
1055	36.892				
1056	32.842				
1057	30.411				
1058	29.0				
1059	28.789				
1060	29.776				
1061	31.732				
1062	35.308				
1063	40.543				
1064	47.851				
1065	57.979				
1066	69.684				
1067	81.12				
1068	88.478				
1069	87.984				
1070	81.12				
1071	71.479				
1072	62.169				
1073	54.828				
1074	49.722				
1075	46.626				
1076	45.319				
1077	45.647				
1078	47.81				
1079	51.516				
1080	57.061				
1081	64.465				
1082	72.924				
1083	80.835				
1084	85.981				
1085	86.065				
1086	81.213				
1087	73.249				
1088	64.678				
1089	57.171				
1090	51.164				
1091	46.726				
1092	44.084				
1093	42.815				
1094	42.802				
1095	44.199				
1096	47.057				
1097	51.455				
1098	57.53				
1099	65.272				
1100	73.995				
