Wavelength	Transmittance	hex_color	Manufacturer	Name	Filter Number
451	37.164		Chroma		PCR647lpxr
452	36.777				
453	36.301				
454	34.9				
455	33.005				
456	31.664				
457	31.22				
458	30.772				
459	29.306				
460	26.683				
461	22.382				
462	16.392				
463	10.719				
464	7.278				
465	5.651				
466	4.757				
467	4.071				
468	3.409				
469	2.735				
470	2.128				
471	1.648				
472	1.361				
473	1.119				
474	1.083				
475	1.105				
476	1.136				
477	1.122				
478	1.056				
479	0.946				
480	0.751				
481	0.589				
482	0.44				
483	0.372				
484	0.353				
485	0.43				
486	0.567				
487	0.676				
488	0.755				
489	0.789				
490	0.767				
491	0.711				
492	0.599				
493	0.472				
494	0.399				
495	0.319				
496	0.265				
497	0.235				
498	0.302				
499	0.494				
500	0.639				
501	0.646				
502	0.67				
503	0.657				
504	0.533				
505	0.302				
506	0.073				
507	0.02				
508	0.0				
509	0.061				
510	0.185				
511	0.319				
512	0.411				
513	0.425				
514	0.417				
515	0.408				
516	0.321				
517	0.154				
518	0.066				
519	0.04				
520	0.03				
521	0.027				
522	0.074				
523	0.112				
524	0.159				
525	0.199				
526	0.224				
527	0.222				
528	0.244				
529	0.218				
530	0.176				
531	0.161				
532	0.177				
533	0.204				
534	0.233				
535	0.281				
536	0.304				
537	0.324				
538	0.298				
539	0.28				
540	0.249				
541	0.192				
542	0.219				
543	0.279				
544	0.365				
545	0.448				
546	0.521				
547	0.557				
548	0.606				
549	0.656				
550	0.703				
551	0.748				
552	0.722				
553	0.694				
554	0.626				
555	0.561				
556	0.474				
557	0.317				
558	0.206				
559	0.143				
560	0.119				
561	0.157				
562	0.283				
563	0.468				
564	0.613				
565	0.727				
566	0.756				
567	0.774				
568	0.775				
569	0.715				
570	0.65				
571	0.618				
572	0.75				
573	0.947				
574	1.129				
575	1.238				
576	1.262				
577	1.234				
578	1.154				
579	1.015				
580	0.858				
581	0.709				
582	0.613				
583	0.561				
584	0.561				
585	0.557				
586	0.622				
587	0.755				
588	0.945				
589	1.143				
590	1.292				
591	1.353				
592	1.348				
593	1.274				
594	1.116				
595	0.868				
596	0.594				
597	0.409				
598	0.34				
599	0.338				
600	0.438				
601	0.629				
602	0.952				
603	1.373				
604	1.729				
605	1.936				
606	1.994				
607	1.973				
608	1.87				
609	1.7				
610	1.527				
611	1.487				
612	1.639				
613	1.863				
614	2.053				
615	2.14				
616	2.177				
617	2.165				
618	2.136				
619	2.06				
620	1.909				
621	1.681				
622	1.448				
623	1.267				
624	1.142				
625	1.074				
626	1.05				
627	1.07				
628	1.098				
629	1.117				
630	1.116				
631	1.127				
632	1.193				
633	1.325				
634	1.539				
635	1.873				
636	2.398				
637	3.229				
638	4.539				
639	6.601				
640	9.608				
641	13.331				
642	17.747				
643	22.479				
644	27.312				
645	32.722				
646	38.993				
647	46.07				
648	53.774				
649	61.182				
650	67.8				
651	74.013				
652	80.187				
653	86.096				
654	91.06				
655	94.422				
656	96.11				
657	96.78				
658	97.114				
659	97.383				
660	97.578				
661	97.643				
662	97.609				
663	97.492				
664	97.369				
665	97.226				
666	97.089				
667	96.983				
668	96.935				
669	96.977				
670	97.109				
671	97.325				
672	97.566				
673	97.752				
674	97.871				
675	97.856				
676	97.751				
677	97.564				
678	97.344				
679	97.199				
680	97.137				
681	97.156				
682	97.273				
683	97.412				
684	97.539				
685	97.607				
686	97.623				
687	97.588				
688	97.523				
689	97.457				
690	97.438				
691	97.467				
692	97.539				
693	97.618				
694	97.657				
695	97.656				
696	97.589				
697	97.472				
698	97.327				
699	97.224				
700	97.163				
701	97.189				
702	97.303				
703	97.516				
704	97.745				
705	97.961				
706	98.113				
707	98.162				
708	98.107				
709	97.963				
710	97.746				
711	97.554				
712	97.372				
713	97.285				
714	97.277				
715	97.384				
716	97.527				
717	97.692				
718	97.846				
719	97.956				
720	98.061				
721	98.031				
722	97.99				
723	97.856				
724	97.767				
725	97.741				
726	97.732				
727	97.805				
728	97.963				
729	98.025				
730	98.142				
731	98.131				
732	98.087				
733	97.895				
734	97.779				
735	97.569				
736	97.395				
737	97.298				
738	97.247				
739	97.233				
740	97.352				
741	97.554				
742	97.739				
743	97.915				
744	98.11				
745	98.123				
746	98.112				
747	97.985				
748	97.76				
749	97.53				
750	97.342				
751	97.169				
752	97.035				
753	97.038				
754	97.084				
755	97.264				
756	97.442				
757	97.599				
758	97.796				
759	97.861				
760	97.872				
761	97.806				
762	97.692				
763	97.584				
764	97.423				
765	97.29				
766	97.238				
767	97.245				
768	97.32				
769	97.457				
770	97.612				
771	97.819				
772	97.979				
773	98.069				
774	98.074				
775	98.02				
776	97.84				
777	97.654				
778	97.401				
779	97.171				
780	97.005				
781	96.87				
782	96.85				
783	96.935				
784	97.066				
785	97.25				
786	97.516				
787	97.718				
788	97.879				
789	98.049				
790	98.03				
791	97.992				
792	97.874				
793	97.693				
794	97.455				
795	97.267				
796	97.081				
797	96.972				
798	96.925				
799	96.982				
800	97.09				
801	97.272				
802	97.471				
803	97.643				
804	97.84				
805	97.901				
806	97.943				
807	97.874				
808	97.717				
809	97.561				
810	97.324				
811	97.058				
812	96.889				
813	96.739				
814	96.651				
815	96.679				
816	96.747				
817	96.917				
818	97.159				
819	97.364				
820	97.591				
821	97.772				
822	97.87				
823	97.894				
824	97.838				
825	97.717				
826	97.505				
827	97.284				
828	97.038				
829	96.807				
830	96.616				
831	96.528				
832	96.517				
833	96.575				
834	96.718				
835	96.927				
836	97.196				
837	97.44				
838	97.685				
839	97.845				
840	97.98				
841	98.002				
842	97.942				
843	97.782				
844	97.546				
845	97.276				
846	96.988				
847	96.672				
848	96.399				
849	96.166				
850	96.048				
851	96.005				
852	96.006				
853	96.091				
854	96.26				
855	96.421				
856	96.626				
857	96.793				
858	96.89				
859	96.957				
860	96.921				
861	96.809				
862	96.635				
863	96.408				
864	96.124				
865	95.858				
866	95.575				
867	95.334				
868	95.16				
869	95.062				
870	95.046				
871	95.114				
872	95.275				
873	95.511				
874	95.785				
875	96.091				
876	96.399				
877	96.687				
878	96.943				
879	97.146				
880	97.281				
881	97.35				
882	97.348				
883	97.283				
884	97.172				
885	97.009				
886	96.837				
887	96.677				
888	96.537				
889	96.43				
890	96.369				
891	96.34				
892	96.358				
893	96.428				
894	96.512				
895	96.623				
896	96.719				
897	96.791				
898	96.837				
899	96.851				
900	96.816				
901	96.722				
902	96.596				
903	96.416				
904	96.188				
905	95.944				
906	95.691				
907	95.44				
908	95.219				
909	95.033				
910	94.892				
911	94.806				
912	94.769				
913	94.805				
914	94.902				
915	95.025				
916	95.204				
917	95.404				
918	95.618				
919	95.836				
920	96.038				
921	96.219				
922	96.4				
923	96.537				
924	96.638				
925	96.709				
926	96.757				
927	96.782				
928	96.788				
929	96.787				
930	96.773				
931	96.767				
932	96.754				
933	96.755				
934	96.764				
935	96.761				
936	96.776				
937	96.779				
938	96.773				
939	96.75				
940	96.71				
941	96.633				
942	96.523				
943	96.402				
944	96.243				
945	96.062				
946	95.865				
947	95.651				
948	95.433				
949	95.228				
950	95.031				
951	94.861				
952	94.712				
953	94.593				
954	94.513				
955	94.488				
956	94.482				
957	94.515				
958	94.577				
959	94.657				
960	94.766				
961	94.886				
962	94.997				
963	95.115				
964	95.212				
965	95.298				
966	95.364				
967	95.402				
968	95.419				
969	95.424				
970	95.402				
971	95.367				
972	95.323				
973	95.267				
974	95.211				
975	95.153				
976	95.101				
977	95.058				
978	95.018				
979	94.996				
980	94.989				
981	94.983				
982	94.98				
983	94.975				
984	94.979				
985	94.982				
986	94.975				
987	94.957				
988	94.941				
989	94.905				
990	94.864				
991	94.813				
992	94.757				
993	94.699				
994	94.627				
995	94.554				
996	94.484				
997	94.403				
998	94.319				
999	94.23				
1000	94.115				
1001	0.0				
