Wavelength	Transmittance	hex_color	Manufacturer	Name	Filter Number
380	0.16		Chroma	rpc	ZT440-445/488-491/594 rpc
381	0.178				
382	0.204				
383	0.459				
384	1.39				
385	5.974				
386	9.202				
387	4.725				
388	0.511				
389	0.404				
390	0.803				
391	0.982				
392	0.665				
393	1.828				
394	4.249				
395	3.765				
396	1.679				
397	1.723				
398	7.702				
399	16.203				
400	23.685				
401	25.824				
402	18.449				
403	13.045				
404	12.189				
405	7.182				
406	2.01				
407	1.781				
408	7.364				
409	16.545				
410	16.402				
411	8.816				
412	5.823				
413	11.804				
414	25.718				
415	36.393				
416	42.63				
417	44.526				
418	39.885				
419	33.335				
420	35.268				
421	29.784				
422	13.899				
423	12.5				
424	18.189				
425	12.466				
426	4.138				
427	1.751				
428	2.097				
429	3.334				
430	4.743				
431	5.248				
432	5.119				
433	5.759				
434	6.574				
435	4.766				
436	1.826				
437	0.595				
438	0.348				
439	0.263				
440	0.276				
441	0.275				
442	0.273				
443	0.277				
444	0.267				
445	0.331				
446	0.542				
447	1.357				
448	4.974				
449	16.504				
450	33.712				
451	45.505				
452	49.445				
453	58.821				
454	77.547				
455	91.699				
456	96.081				
457	96.43				
458	95.999				
459	95.587				
460	95.2				
461	95.507				
462	96.759				
463	97.252				
464	96.312				
465	95.462				
466	96.007				
467	96.491				
468	96.361				
469	96.176				
470	96.365				
471	96.298				
472	95.696				
473	94.92				
474	94.885				
475	95.361				
476	95.936				
477	96.376				
478	96.311				
479	92.844				
480	79.656				
481	52.631				
482	26.64				
483	11.124				
484	5.213				
485	2.794				
486	1.789				
487	1.33				
488	1.109				
489	1.041				
490	1.066				
491	1.209				
492	1.504				
493	2.136				
494	3.326				
495	5.67				
496	10.692				
497	20.932				
498	34.676				
499	45.618				
500	52.834				
501	61.929				
502	76.45				
503	89.146				
504	94.815				
505	95.252				
506	94.273				
507	93.822				
508	94.253				
509	95.267				
510	96.321				
511	96.803				
512	97.098				
513	97.135				
514	97.238				
515	96.857				
516	96.338				
517	96.159				
518	96.264				
519	96.752				
520	96.986				
521	96.462				
522	95.54				
523	94.895				
524	94.952				
525	95.803				
526	96.445				
527	96.346				
528	95.647				
529	94.821				
530	94.597				
531	95.154				
532	96.015				
533	96.978				
534	97.295				
535	97.099				
536	96.657				
537	96.527				
538	96.702				
539	97.149				
540	97.399				
541	97.464				
542	97.244				
543	97.019				
544	96.965				
545	97.052				
546	97.192				
547	97.338				
548	97.29				
549	97.377				
550	97.487				
551	97.354				
552	97.149				
553	96.765				
554	96.476				
555	96.14				
556	96.014				
557	96.456				
558	96.809				
559	97.1				
560	97.029				
561	96.538				
562	96.02				
563	95.688				
564	95.54				
565	95.867				
566	96.492				
567	97.046				
568	97.334				
569	97.176				
570	96.639				
571	96.03				
572	95.643				
573	95.861				
574	96.592				
575	96.959				
576	95.764				
577	91.029				
578	82.558				
579	72.011				
580	61.932				
581	53.475				
582	45.723				
583	37.737				
584	28.325				
585	19.489				
586	12.706				
587	7.988				
588	5.277				
589	3.684				
590	2.727				
591	2.129				
592	1.778				
593	1.562				
594	1.437				
595	1.386				
596	1.397				
597	1.475				
598	1.638				
599	1.902				
600	2.32				
601	2.961				
602	4.088				
603	5.755				
604	8.431				
605	12.787				
606	19.426				
607	28.525				
608	38.475				
609	46.883				
610	53.068				
611	59.125				
612	68.375				
613	80.738				
614	91.077				
615	95.543				
616	96.138				
617	96.053				
618	96.303				
619	96.394				
620	96.314				
621	95.944				
622	95.826				
623	96.006				
624	96.308				
625	96.972				
626	97.451				
627	97.622				
628	97.516				
629	97.18				
630	96.858				
631	96.842				
632	96.975				
633	97.178				
634	97.51				
635	97.797				
636	97.775				
637	97.616				
638	97.362				
639	97.025				
640	96.83				
641	96.779				
642	96.984				
643	97.301				
644	97.626				
645	97.921				
646	97.943				
647	97.976				
648	97.996				
649	97.776				
650	97.53				
651	97.335				
652	97.408				
653	97.332				
654	97.511				
655	97.524				
656	97.255				
657	96.941				
658	96.685				
659	96.261				
660	96.042				
661	95.977				
662	96.043				
663	96.131				
664	96.42				
665	96.79				
666	97.062				
667	97.215				
668	97.172				
669	96.899				
670	96.644				
671	96.3				
672	96.006				
673	95.751				
674	95.771				
675	95.765				
676	95.945				
677	96.081				
678	96.26				
679	96.489				
680	96.763				
681	97.06				
682	97.271				
683	97.451				
684	97.521				
685	97.734				
686	97.999				
687	98.077				
688	98.15				
689	98.344				
690	98.637				
691	98.622				
692	98.528				
693	98.475				
694	98.348				
695	98.334				
696	98.217				
697	98.005				
698	97.889				
699	97.744				
700	97.617				
701	97.413				
702	97.244				
703	97.002				
704	96.699				
705	96.455				
706	96.109				
707	95.987				
708	95.771				
709	95.745				
710	95.506				
711	95.267				
712	95.202				
713	95.222				
714	95.361				
715	95.701				
716	95.946				
717	96.127				
718	96.315				
719	96.692				
720	96.896				
721	96.984				
722	96.999				
723	97.072				
724	97.061				
725	96.948				
726	96.691				
727	96.594				
728	96.656				
729	96.754				
730	96.747				
731	96.816				
732	97.181				
733	97.467				
734	97.695				
735	97.977				
736	98.161				
737	97.967				
738	98.017				
739	97.948				
740	97.795				
741	97.714				
742	97.525				
743	97.368				
744	97.165				
745	96.931				
746	96.819				
747	96.773				
748	96.736				
749	96.798				
750	96.916				
751	96.974				
752	96.947				
753	96.917				
754	96.898				
755	96.859				
756	96.743				
757	96.677				
758	96.706				
759	96.692				
760	96.521				
761	96.086				
762	94.957				
763	92.456				
764	88.265				
765	81.653				
766	72.961				
767	63.073				
768	53.336				
769	43.282				
770	35.114				
771	27.796				
772	22.001				
773	17.729				
774	14.253				
775	11.652				
776	9.698				
777	8.239				
778	7.211				
779	6.361				
780	5.728				
781	5.255				
782	4.811				
783	4.6				
784	4.486				
785	4.441				
786	4.461				
787	4.584				
788	4.79				
789	5.094				
790	5.514				
791	6.057				
792	6.798				
793	7.891				
794	9.095				
795	10.584				
796	12.292				
797	14.816				
798	17.677				
799	21.314				
800	25.483				
