Wavelength	Transmittance	hex_color	Manufacturer	Name	Filter Number
300	0.0		Chroma		ZET488/594m
301	0.0				
302	0.0				
303	0.0				
304	0.0				
305	0.0				
306	0.0				
307	0.0				
308	0.0				
309	0.0				
310	0.0				
311	0.0				
312	0.0				
313	0.0				
314	0.0				
315	0.0				
316	0.0				
317	0.0				
318	0.0				
319	0.0				
320	0.0				
321	0.0				
322	0.0				
323	0.0				
324	0.0				
325	0.0				
326	0.0				
327	0.0				
328	0.0				
329	0.0				
330	0.0				
331	0.0				
332	0.0				
333	0.0				
334	0.0				
335	0.0				
336	0.0				
337	0.0				
338	0.0				
339	0.0				
340	0.0				
341	0.0				
342	0.0				
343	0.0				
344	0.0				
345	0.0				
346	0.0				
347	0.0				
348	0.0				
349	0.0				
350	0.0				
351	0.0				
352	0.0				
353	0.0				
354	0.0				
355	0.0				
356	0.0				
357	0.0				
358	0.0				
359	0.0				
360	0.001				
361	0.001				
362	0.0				
363	0.0				
364	0.0				
365	0.003				
366	0.004				
367	0.0				
368	0.0				
369	0.0				
370	0.0				
371	0.0				
372	0.0				
373	0.0				
374	0.0				
375	0.0				
376	0.0				
377	0.0				
378	0.0				
379	0.001				
380	0.0				
381	0.0				
382	0.0				
383	0.0				
384	0.0				
385	0.0				
386	0.0				
387	0.0				
388	0.0				
389	0.0				
390	0.0				
391	0.0				
392	0.0				
393	0.0				
394	0.0				
395	0.0				
396	0.0				
397	0.0				
398	0.0				
399	0.0				
400	0.0				
401	0.0				
402	0.0				
403	0.0				
404	0.0				
405	0.0				
406	0.0				
407	0.0				
408	0.0				
409	0.0				
410	0.0				
411	0.0				
412	0.0				
413	0.0				
414	0.0				
415	0.0				
416	0.0				
417	0.0				
418	0.0				
419	0.0				
420	0.0				
421	0.0				
422	0.0				
423	0.0				
424	0.0				
425	0.0				
426	0.0				
427	0.0				
428	0.0				
429	0.0				
430	0.0				
431	0.0				
432	0.0				
433	0.0				
434	0.0				
435	0.0				
436	0.0				
437	0.0				
438	0.0				
439	0.0				
440	0.0				
441	0.0				
442	0.0				
443	0.0				
444	0.0				
445	0.0				
446	0.0				
447	0.0				
448	0.0				
449	0.0				
450	0.0				
451	0.0				
452	0.0				
453	0.0				
454	0.0				
455	0.0				
456	0.0				
457	0.0				
458	0.0				
459	0.0				
460	0.0				
461	0.0				
462	0.0				
463	0.0				
464	0.0				
465	0.0				
466	0.0				
467	0.0				
468	0.0				
469	0.0				
470	0.0				
471	0.0				
472	0.0				
473	0.0				
474	0.0				
475	0.0				
476	0.0				
477	0.0				
478	0.0				
479	0.0				
480	0.0				
481	0.0				
482	0.0				
483	0.0				
484	0.0				
485	0.0				
486	0.0				
487	0.0				
488	0.0				
489	0.0				
490	0.0				
491	0.0				
492	0.0				
493	0.0				
494	0.0				
495	0.0				
496	0.0				
497	0.0				
498	0.0				
499	0.002				
500	0.034				
501	7.006				
502	69.644				
503	96.109				
504	97.556				
505	97.74				
506	97.965				
507	97.573				
508	97.642				
509	98.407				
510	98.475				
511	98.026				
512	96.142				
513	97.029				
514	97.921				
515	96.0				
516	95.502				
517	97.125				
518	97.775				
519	97.907				
520	98.483				
521	97.945				
522	98.345				
523	97.502				
524	95.982				
525	96.931				
526	98.333				
527	98.53				
528	98.245				
529	97.308				
530	96.883				
531	98.163				
532	98.691				
533	98.243				
534	98.203				
535	96.818				
536	94.887				
537	93.819				
538	93.011				
539	93.214				
540	95.983				
541	97.759				
542	98.215				
543	98.453				
544	96.846				
545	94.98				
546	95.714				
547	98.002				
548	98.191				
549	98.525				
550	98.755				
551	98.607				
552	98.297				
553	97.56				
554	95.979				
555	95.189				
556	96.643				
557	97.239				
558	97.474				
559	98.427				
560	97.844				
561	97.031				
562	97.625				
563	96.947				
564	96.448				
565	97.482				
566	96.067				
567	94.858				
568	97.35				
569	96.144				
570	96.095				
571	97.881				
572	78.491				
573	6.346				
574	2.564				
575	0.097				
576	0.007				
577	0.001				
578	0.0				
579	0.0				
580	0.0				
581	0.0				
582	0.0				
583	0.0				
584	0.0				
585	0.0				
586	0.0				
587	0.0				
588	0.0				
589	0.0				
590	0.0				
591	0.0				
592	0.0				
593	0.0				
594	0.0				
595	0.0				
596	0.0				
597	0.0				
598	0.0				
599	0.0				
600	0.0				
601	0.0				
602	0.0				
603	0.0				
604	0.001				
605	0.006				
606	0.06				
607	1.031				
608	18.863				
609	70.406				
610	82.418				
611	92.453				
612	95.963				
613	92.191				
614	96.084				
615	97.438				
616	94.192				
617	94.594				
618	97.583				
619	97.904				
620	96.735				
621	96.339				
622	96.02				
623	96.723				
624	98.168				
625	98.328				
626	96.637				
627	95.482				
628	96.284				
629	97.63				
630	96.61				
631	94.853				
632	94.751				
633	96.819				
634	98.391				
635	98.462				
636	97.813				
637	98.055				
638	98.704				
639	98.709				
640	98.132				
641	97.799				
642	98.076				
643	98.603				
644	98.989				
645	98.625				
646	98.407				
647	98.118				
648	98.118				
649	98.065				
650	97.865				
651	97.909				
652	98.307				
653	98.508				
654	98.799				
655	98.666				
656	98.201				
657	97.585				
658	97.687				
659	98.238				
660	98.755				
661	98.801				
662	98.5				
663	97.839				
664	97.64				
665	97.934				
666	98.247				
667	98.147				
668	97.376				
669	96.457				
670	96.397				
671	97.319				
672	98.325				
673	98.849				
674	98.954				
675	98.728				
676	98.552				
677	98.783				
678	98.956				
679	98.915				
680	98.804				
681	98.411				
682	98.54				
683	98.585				
684	99.009				
685	99.295				
686	99.287				
687	98.814				
688	98.826				
689	98.686				
690	98.896				
691	98.924				
692	98.774				
693	98.652				
694	98.314				
695	98.419				
696	98.796				
697	98.908				
698	98.931				
699	98.181				
700	97.754				
701	97.51				
702	97.824				
703	98.517				
704	99.069				
705	99.018				
706	98.667				
707	98.41				
708	98.34				
709	98.448				
710	98.711				
711	99.043				
712	98.862				
713	99.135				
714	98.941				
715	98.164				
716	97.724				
717	96.978				
718	97.146				
719	97.646				
720	97.839				
721	98.192				
722	97.993				
723	97.856				
724	96.806				
725	95.457				
726	95.648				
727	97.896				
728	89.017				
729	59.471				
730	30.649				
731	16.274				
732	10.565				
733	9.76				
734	18.138				
735	46.147				
736	3.82				
737	1.51				
738	0.362				
739	0.133				
740	0.061				
741	0.033				
742	0.02				
743	0.013				
744	0.009				
745	0.007				
746	0.006				
747	0.005				
748	0.005				
749	0.005				
750	0.006				
751	0.007				
752	0.008				
753	0.011				
754	0.017				
755	0.027				
756	0.051				
757	0.114				
758	0.318				
759	1.347				
760	8.999				
761	21.541				
762	14.373				
763	14.468				
764	34.601				
765	74.055				
766	29.674				
767	14.935				
768	9.593				
769	8.943				
770	10.182				
771	11.588				
772	10.582				
773	8.203				
774	6.483				
775	5.928				
776	6.445				
777	7.884				
778	9.252				
779	8.569				
780	6.33				
781	4.477				
782	3.559				
783	3.333				
784	3.728				
785	5.141				
786	9.185				
787	21.946				
788	43.131				
789	34.218				
790	17.223				
791	11.008				
792	9.515				
793	10.912				
794	16.59				
795	34.62				
796	71.233				
797	66.309				
798	32.829				
799	18.078				
800	22.467				
801	17.77				
802	15.318				
803	14.604				
804	14.892				
805	15.576				
806	16.617				
807	18.487				
808	21.677				
809	27.354				
810	36.929				
811	48.753				
812	53.059				
813	44.375				
814	32.764				
815	24.175				
816	18.974				
817	16.881				
818	18.225				
819	22.812				
820	31.538				
821	44.456				
822	58.175				
823	63.03				
824	58.438				
825	53.404				
826	53.981				
827	60.294				
828	65.184				
829	58.51				
830	44.102				
831	31.279				
832	22.776				
833	17.557				
834	15.305				
835	15.689				
836	18.682				
837	24.369				
838	33.753				
839	46.601				
840	56.132				
841	56.433				
842	51.915				
843	50.511				
844	57.259				
845	72.34				
846	81.24				
847	64.609				
848	42.164				
849	26.714				
850	17.874				
851	13.017				
852	11.093				
853	12.102				
854	15.842				
855	23.987				
856	41.957				
857	66.951				
858	55.926				
859	33.296				
860	19.875				
861	12.683				
862	8.607				
863	6.916				
864	7.414				
865	9.657				
866	13.896				
867	22.179				
868	34.046				
869	32.936				
870	21.816				
871	13.675				
872	8.94				
873	6.094				
874	4.475				
875	3.628				
876	3.593				
877	4.201				
878	5.485				
879	7.605				
880	11.409				
881	19.142				
882	33.307				
883	45.872				
884	38.942				
885	26.809				
886	18.931				
887	15.262				
888	14.274				
889	15.313				
890	18.368				
891	24.549				
892	35.346				
893	52.349				
894	68.517				
895	67.41				
896	53.599				
897	39.919				
898	31.28				
899	26.086				
900	23.247				
901	22.271				
902	23.07				
903	26.19				
904	33.505				
905	48.602				
906	71.896				
907	72.661				
908	44.177				
909	23.616				
910	13.072				
911	8.141				
912	5.491				
913	3.979				
914	3.127				
915	2.668				
916	2.489				
917	2.547				
918	2.856				
919	3.487				
920	4.677				
921	6.872				
922	11.928				
923	30.501				
924	70.934				
925	46.766				
926	19.6				
927	9.58				
928	5.634				
929	3.866				
930	2.976				
931	2.525				
932	2.33				
933	2.314				
934	2.451				
935	2.744				
936	3.251				
937	4.01				
938	5.225				
939	7.27				
940	10.819				
941	17.753				
942	32.766				
943	61.025				
944	82.335				
945	64.592				
946	39.86				
947	25.625				
948	18.316				
949	14.29				
950	12.151				
951	11.103				
952	10.898				
953	11.488				
954	13.06				
955	16.282				
956	22.221				
957	33.143				
958	49.519				
959	57.883				
960	44.896				
961	28.602				
962	18.251				
963	12.771				
964	9.813				
965	8.116				
966	7.259				
967	6.938				
968	7.058				
969	7.642				
970	8.834				
971	10.973				
972	14.715				
973	21.544				
974	34.083				
975	55.91				
976	78.548				
977	79.063				
978	60.863				
979	44.975				
980	35.539				
981	30.717				
982	29.444				
983	30.963				
984	36.017				
985	45.823				
986	62.807				
987	83.449				
988	87.089				
989	63.441				
990	38.883				
991	23.701				
992	15.438				
993	10.855				
994	8.035				
995	6.357				
996	5.242				
997	4.482				
998	3.987				
999	3.664				
1000	3.462				
