Wavelength	Transmittance	hex_color	Manufacturer	Name	Filter Number
380	30.44		Chroma		ZT543dcrb
381	30.173				
382	30.182				
383	23.733				
384	28.78				
385	25.998				
386	18.997				
387	13.723				
388	4.544				
389	0.687				
390	0.431				
391	0.393				
392	0.371				
393	0.354				
394	0.345				
395	0.382				
396	0.406				
397	0.527				
398	1.004				
399	3.13				
400	11.231				
401	28.79				
402	44.144				
403	53.62				
404	70.412				
405	87.998				
406	93.701				
407	94.599				
408	95.118				
409	95.218				
410	94.532				
411	94.849				
412	96.175				
413	96.294				
414	95.535				
415	95.845				
416	97.281				
417	97.616				
418	97.218				
419	97.232				
420	97.929				
421	98.337				
422	98.059				
423	97.617				
424	97.554				
425	97.811				
426	98.247				
427	97.922				
428	97.198				
429	97.159				
430	97.514				
431	98.026				
432	97.811				
433	96.681				
434	96.023				
435	96.513				
436	97.46				
437	97.409				
438	96.234				
439	95.147				
440	95.614				
441	96.517				
442	97.035				
443	96.886				
444	95.936				
445	95.835				
446	96.885				
447	97.833				
448	97.741				
449	97.124				
450	96.265				
451	96.289				
452	97.025				
453	97.824				
454	97.998				
455	97.553				
456	97.046				
457	96.962				
458	97.26				
459	97.76				
460	98.059				
461	98.06				
462	97.661				
463	97.109				
464	97.228				
465	97.586				
466	97.826				
467	97.82				
468	97.645				
469	97.428				
470	96.926				
471	97.011				
472	97.348				
473	97.577				
474	97.59				
475	97.202				
476	96.847				
477	96.848				
478	97.07				
479	97.513				
480	97.761				
481	97.519				
482	97.307				
483	97.101				
484	97.152				
485	97.584				
486	98.134				
487	98.281				
488	98.0				
489	97.844				
490	97.661				
491	97.446				
492	97.624				
493	97.709				
494	97.748				
495	98.031				
496	97.848				
497	97.653				
498	97.551				
499	97.378				
500	97.216				
501	97.319				
502	97.53				
503	97.78				
504	97.946				
505	97.522				
506	97.064				
507	96.662				
508	96.356				
509	96.778				
510	97.173				
511	97.295				
512	97.06				
513	96.309				
514	95.381				
515	95.182				
516	95.657				
517	96.458				
518	97.381				
519	97.67				
520	97.166				
521	96.515				
522	96.662				
523	97.166				
524	97.089				
525	96.267				
526	94.265				
527	93.001				
528	93.121				
529	90.512				
530	77.773				
531	55.298				
532	32.965				
533	17.571				
534	9.493				
535	5.263				
536	3.207				
537	2.145				
538	1.532				
539	1.183				
540	0.969				
541	0.846				
542	0.773				
543	0.743				
544	0.742				
545	0.781				
546	0.861				
547	0.99				
548	1.192				
549	1.53				
550	2.07				
551	2.966				
552	4.458				
553	7.177				
554	12.05				
555	20.15				
556	31.353				
557	42.323				
558	50.191				
559	54.881				
560	61.162				
561	72.616				
562	86.802				
563	94.537				
564	95.686				
565	95.864				
566	96.949				
567	97.639				
568	97.531				
569	96.822				
570	96.274				
571	96.127				
572	96.511				
573	97.319				
574	98.293				
575	98.65				
576	98.162				
577	97.301				
578	96.503				
579	96.091				
580	96.099				
581	96.503				
582	97.29				
583	98.045				
584	98.615				
585	98.411				
586	97.731				
587	97.18				
588	96.788				
589	96.978				
590	97.464				
591	98.082				
592	98.658				
593	98.928				
594	98.796				
595	98.311				
596	97.65				
597	97.045				
598	96.722				
599	96.84				
600	97.294				
601	97.903				
602	98.393				
603	98.628				
604	98.682				
605	98.212				
606	97.357				
607	96.618				
608	96.035				
609	95.749				
610	95.772				
611	96.113				
612	96.81				
613	97.504				
614	97.847				
615	98.09				
616	98.159				
617	97.647				
618	97.018				
619	96.495				
620	96.137				
621	95.814				
622	95.839				
623	96.183				
624	96.697				
625	97.463				
626	97.879				
627	98.129				
628	98.069				
629	97.782				
630	97.368				
631	96.75				
632	96.355				
633	96.083				
634	96.01				
635	96.256				
636	96.644				
637	97.278				
638	97.882				
639	98.182				
640	98.632				
641	98.807				
642	98.432				
643	97.825				
644	97.536				
645	97.175				
646	96.838				
647	96.907				
648	97.187				
649	97.367				
650	97.845				
651	98.347				
652	98.5				
653	98.54				
654	98.305				
655	98.114				
656	97.793				
657	97.47				
658	97.213				
659	97.208				
660	97.295				
661	97.572				
662	97.767				
663	97.988				
664	98.172				
665	98.354				
666	98.573				
667	98.658				
668	98.555				
669	98.28				
670	97.93				
671	97.723				
672	97.542				
673	97.328				
674	97.3				
675	97.432				
676	97.651				
677	98.025				
678	98.286				
679	98.411				
680	98.326				
681	98.495				
682	98.394				
683	98.231				
684	97.94				
685	97.849				
686	97.509				
687	97.298				
688	96.984				
689	96.976				
690	97.044				
691	97.196				
692	97.486				
693	97.642				
694	97.732				
695	97.949				
696	97.919				
697	97.829				
698	97.794				
699	97.743				
700	97.534				
701	97.441				
702	97.326				
703	97.191				
704	97.269				
705	97.403				
706	97.344				
707	97.567				
708	97.546				
709	97.467				
710	97.506				
711	98.024				
712	98.051				
713	98.085				
714	98.175				
715	98.22				
716	98.088				
717	98.037				
718	98.027				
719	98.093				
720	97.762				
721	97.588				
722	97.524				
723	97.52				
724	97.542				
725	97.621				
726	97.565				
727	97.627				
728	97.697				
729	97.852				
730	98.009				
731	98.072				
732	98.087				
733	98.384				
734	98.468				
735	98.279				
736	98.059				
737	98.055				
738	98.036				
739	98.012				
740	97.829				
741	97.608				
742	97.544				
743	97.398				
744	97.425				
745	97.758				
746	97.669				
747	97.629				
748	97.68				
749	97.765				
750	97.934				
751	98.092				
752	98.34				
753	98.567				
754	98.509				
755	98.584				
756	98.636				
757	98.538				
758	98.426				
759	98.326				
760	98.265				
761	98.061				
762	97.793				
763	97.794				
764	97.951				
765	97.928				
766	97.953				
767	97.99				
768	97.995				
769	97.893				
770	97.773				
771	97.937				
772	98.156				
773	98.132				
774	98.152				
775	98.245				
776	98.144				
777	98.016				
778	97.953				
779	97.794				
780	97.669				
781	97.451				
782	96.999				
783	96.697				
784	96.656				
785	96.725				
786	96.653				
787	96.639				
788	96.687				
789	96.87				
790	97.137				
791	97.375				
792	97.579				
793	97.812				
794	97.922				
795	98.069				
796	98.339				
797	98.22				
798	98.039				
799	97.691				
800	97.415				
801	97.099				
802	96.816				
803	96.617				
804	96.535				
805	96.306				
806	96.194				
807	96.274				
808	96.335				
809	96.338				
810	96.466				
811	96.655				
812	96.912				
813	97.221				
814	97.511				
815	97.685				
816	97.762				
817	97.936				
818	97.965				
819	97.816				
820	97.718				
821	97.309				
822	96.942				
823	96.54				
824	96.279				
825	95.867				
826	95.479				
827	95.134				
828	95.085				
829	94.625				
830	94.392				
831	94.245				
832	94.283				
833	94.211				
834	94.383				
835	94.558				
836	94.735				
837	94.94				
838	95.118				
839	95.354				
840	95.466				
841	95.453				
842	95.593				
843	95.559				
844	95.56				
845	95.546				
846	95.349				
847	95.263				
848	95.011				
849	94.761				
850	94.504				
851	94.214				
852	93.95				
853	93.661				
854	93.335				
855	93.018				
856	92.718				
857	92.373				
858	92.038				
859	91.778				
860	91.391				
861	91.118				
862	90.809				
863	90.543				
864	90.294				
865	90.221				
866	90.107				
867	90.074				
868	90.031				
869	90.055				
870	90.163				
871	90.479				
872	90.81				
873	91.128				
874	91.471				
875	91.905				
876	92.444				
877	92.818				
878	93.151				
879	93.357				
880	93.365				
881	93.305				
882	93.116				
883	92.687				
884	92.175				
885	91.399				
886	90.429				
887	89.404				
888	88.218				
889	87.066				
890	85.769				
891	84.707				
892	83.479				
893	82.66				
894	81.928				
895	81.254				
896	80.799				
897	80.688				
898	80.81				
899	81.04				
900	81.624				
901	82.476				
902	83.529				
903	84.594				
904	85.867				
905	87.241				
906	88.697				
907	89.917				
908	90.947				
909	91.827				
910	92.546				
911	92.916				
912	92.844				
913	92.326				
914	91.279				
915	89.907				
916	88.193				
917	86.232				
918	84.064				
919	81.808				
920	79.664				
921	77.562				
922	75.781				
923	74.106				
924	72.645				
925	71.376				
926	70.649				
927	70.215				
928	70.019				
929	70.193				
930	70.7				
931	71.464				
932	72.7				
933	74.169				
934	75.831				
935	77.729				
936	79.904				
937	82.327				
938	84.649				
939	86.792				
940	89.22				
941	90.997				
942	92.281				
943	92.612				
944	92.3				
945	91.268				
946	89.454				
947	86.825				
948	83.723				
949	80.28				
950	76.745				
951	73.256				
952	70.052				
953	67.02				
954	64.121				
955	61.889				
956	59.824				
957	58.14				
958	56.847				
959	55.807				
960	55.247				
961	54.961				
962	54.931				
963	55.334				
964	56.076				
965	57.168				
966	58.629				
967	60.383				
968	62.488				
969	64.86				
970	67.777				
971	70.847				
972	74.233				
973	77.8				
974	81.52				
975	84.834				
976	87.779				
977	89.873				
978	91.105				
979	90.898				
980	89.271				
981	86.367				
982	82.27				
983	77.587				
984	72.554				
985	67.304				
986	62.323				
987	57.44				
988	53.363				
989	49.683				
990	46.264				
991	43.452				
992	41.019				
993	38.805				
994	37.067				
995	35.509				
996	34.209				
997	33.128				
998	32.249				
999	31.609				
1000	31.135				
