Wavelength	Transmittance	hex_color	Manufacturer	Name	Filter Number
380	0.074		Chroma		281010
381	0.064				
382	0.058				
383	0.055				
384	0.055				
385	0.058				
386	0.064				
387	0.074				
388	0.089				
389	0.114				
390	0.156				
391	0.228				
392	0.344				
393	0.536				
394	0.81				
395	1.087				
396	1.216				
397	1.209				
398	1.151				
399	1.129				
400	1.161				
401	1.26				
402	1.44				
403	1.717				
404	2.067				
405	2.487				
406	2.955				
407	3.375				
408	3.713				
409	4.005				
410	4.289				
411	4.651				
412	5.124				
413	5.792				
414	6.64				
415	7.729				
416	8.974				
417	10.266				
418	11.561				
419	12.744				
420	13.883				
421	15.0				
422	16.31				
423	17.741				
424	19.329				
425	21.042				
426	22.672				
427	24.295				
428	25.708				
429	26.859				
430	27.847				
431	28.822				
432	29.801				
433	30.746				
434	31.8				
435	32.691				
436	33.411				
437	33.801				
438	33.925				
439	33.74				
440	33.499				
441	33.231				
442	33.121				
443	33.118				
444	33.242				
445	33.405				
446	33.544				
447	33.58				
448	33.491				
449	33.249				
450	32.867				
451	32.469				
452	32.124				
453	31.73				
454	31.529				
455	31.275				
456	30.954				
457	30.607				
458	30.106				
459	29.448				
460	28.635				
461	27.639				
462	26.713				
463	25.747				
464	24.827				
465	23.962				
466	23.098				
467	22.271				
468	21.416				
469	20.418				
470	19.371				
471	18.165				
472	16.937				
473	15.671				
474	14.491				
475	13.403				
476	12.394				
477	11.548				
478	10.805				
479	10.092				
480	9.455				
481	8.787				
482	8.086				
483	7.318				
484	6.492				
485	5.672				
486	4.871				
487	4.131				
488	3.47				
489	2.931				
490	2.483				
491	2.13				
492	1.833				
493	1.604				
494	1.421				
495	1.276				
496	1.167				
497	1.078				
498	1.016				
499	0.968				
500	0.938				
501	0.92				
502	0.918				
503	0.926				
504	0.951				
505	0.99				
506	1.041				
507	1.111				
508	1.201				
509	1.313				
510	1.45				
511	1.629				
512	1.835				
513	2.093				
514	2.411				
515	2.799				
516	3.265				
517	3.822				
518	4.488				
519	5.253				
520	6.1				
521	7.046				
522	8.064				
523	9.125				
524	10.173				
525	11.235				
526	12.243				
527	13.254				
528	14.214				
529	15.202				
530	16.192				
531	17.253				
532	18.331				
533	19.468				
534	20.66				
535	21.922				
536	23.243				
537	24.637				
538	26.012				
539	27.401				
540	28.724				
541	30.051				
542	31.366				
543	32.709				
544	33.973				
545	35.265				
546	36.569				
547	37.82				
548	39.115				
549	40.586				
550	41.851				
551	43.292				
552	44.822				
553	46.22				
554	47.676				
555	49.229				
556	50.712				
557	52.264				
558	53.769				
559	55.326				
560	56.846				
561	58.346				
562	59.881				
563	61.423				
564	63.082				
565	64.754				
566	66.213				
567	68.124				
568	69.894				
569	71.693				
570	73.371				
571	75.071				
572	76.774				
573	78.45				
574	79.968				
575	81.619				
576	83.149				
577	84.327				
578	85.825				
579	86.877				
580	88.013				
581	88.995				
582	90.145				
583	91.174				
584	92.204				
585	92.893				
586	94.044				
587	94.681				
588	95.588				
589	96.302				
590	96.904				
591	97.614				
592	98.265				
593	98.723				
594	99.185				
595	99.459				
596	99.694				
597	99.884				
598	99.893				
599	99.921				
600	99.83				
601	99.632				
602	99.28				
603	99.007				
604	98.487				
605	97.974				
606	97.414				
607	96.483				
608	95.598				
609	94.545				
610	93.512				
611	92.33				
612	91.222				
613	89.799				
614	88.352				
615	87.011				
616	85.338				
617	83.874				
618	82.216				
619	80.611				
620	78.688				
621	77.253				
622	75.392				
623	73.666				
624	71.828				
625	70.106				
626	68.312				
627	66.39				
628	64.6				
629	62.78				
630	60.858				
631	59.006				
632	57.164				
633	55.176				
634	53.273				
635	51.441				
636	49.595				
637	47.741				
638	45.927				
639	44.182				
640	42.355				
641	40.676				
642	38.948				
643	37.308				
644	35.656				
645	33.921				
646	32.422				
647	30.848				
648	29.398				
649	27.911				
650	26.533				
651	25.156				
652	23.852				
653	22.576				
654	21.335				
655	20.15				
656	19.033				
657	17.994				
658	16.952				
659	15.992				
660	15.091				
661	14.203				
662	13.37				
663	12.59				
664	11.874				
665	11.161				
666	10.48				
667	9.876				
668	9.267				
669	8.716				
670	8.176				
671	7.688				
672	7.232				
673	6.785				
674	6.361				
675	5.973				
676	5.598				
677	5.246				
678	4.919				
679	4.607				
680	4.336				
681	4.058				
682	3.807				
683	3.573				
684	3.34				
685	3.133				
686	2.933				
687	2.747				
688	2.572				
689	2.391				
690	2.236				
691	2.081				
692	1.942				
693	1.805				
694	1.681				
695	1.555				
696	1.443				
697	1.332				
698	1.233				
699	1.136				
700	1.051				
701	0.967				
702	0.894				
703	0.824				
704	0.762				
705	0.704				
706	0.649				
707	0.598				
708	0.555				
709	0.511				
710	0.474				
711	0.437				
712	0.405				
713	0.377				
714	0.35				
715	0.325				
716	0.302				
717	0.282				
718	0.262				
719	0.244				
720	0.229				
721	0.215				
722	0.201				
723	0.192				
724	0.181				
725	0.171				
726	0.162				
727	0.152				
728	0.146				
729	0.14				
730	0.133				
731	0.128				
732	0.123				
733	0.118				
734	0.114				
735	0.11				
736	0.107				
737	0.104				
738	0.101				
739	0.098				
740	0.097				
741	0.093				
742	0.093				
743	0.091				
744	0.089				
745	0.088				
746	0.088				
747	0.087				
748	0.086				
749	0.085				
750	0.086				
751	0.086				
752	0.086				
753	0.087				
754	0.088				
755	0.088				
756	0.089				
757	0.092				
758	0.093				
759	0.094				
760	0.097				
761	0.098				
762	0.101				
763	0.103				
764	0.107				
765	0.111				
766	0.115				
767	0.12				
768	0.125				
769	0.131				
770	0.138				
771	0.147				
772	0.153				
773	0.163				
774	0.171				
775	0.184				
776	0.197				
777	0.212				
778	0.229				
779	0.246				
780	0.0				
