Wavelength	Transmittance	hex_color	Manufacturer	Name	Filter Number
380	13.644		Chroma		ZT594/680rpc
381	7.572				
382	9.256				
383	7.3				
384	8.331				
385	26.361				
386	19.251				
387	23.278				
388	20.048				
389	20.056				
390	26.625				
391	33.742				
392	34.892				
393	36.082				
394	35.523				
395	21.538				
396	10.31				
397	14.005				
398	24.082				
399	10.264				
400	1.705				
401	1.222				
402	1.879				
403	4.363				
404	8.309				
405	12.49				
406	19.163				
407	16.419				
408	4.968				
409	1.623				
410	1.344				
411	1.933				
412	4.943				
413	17.827				
414	34.564				
415	27.64				
416	15.883				
417	18.423				
418	16.259				
419	6.849				
420	2.675				
421	2.444				
422	5.946				
423	17.741				
424	15.524				
425	3.036				
426	0.909				
427	0.827				
428	1.297				
429	4.314				
430	14.451				
431	20.968				
432	14.591				
433	17.537				
434	15.474				
435	3.203				
436	0.726				
437	0.411				
438	0.325				
439	0.341				
440	0.432				
441	0.722				
442	1.757				
443	4.794				
444	7.911				
445	7.829				
446	8.557				
447	14.215				
448	22.801				
449	29.204				
450	27.623				
451	26.967				
452	23.367				
453	18.028				
454	17.357				
455	19.177				
456	21.65				
457	21.211				
458	18.152				
459	16.785				
460	14.879				
461	12.73				
462	15.91				
463	27.128				
464	40.116				
465	39.724				
466	33.196				
467	16.063				
468	7.531				
469	6.038				
470	5.856				
471	6.408				
472	7.638				
473	9.483				
474	12.238				
475	16.033				
476	20.759				
477	26.989				
478	33.721				
479	41.375				
480	48.888				
481	57.79				
482	67.401				
483	79.246				
484	89.153				
485	92.689				
486	92.315				
487	91.663				
488	92.546				
489	93.584				
490	94.037				
491	93.615				
492	93.085				
493	93.439				
494	94.167				
495	94.671				
496	94.681				
497	94.52				
498	94.442				
499	94.375				
500	93.974				
501	93.271				
502	92.7				
503	92.372				
504	93.025				
505	94.096				
506	94.762				
507	94.452				
508	93.251				
509	92.206				
510	91.744				
511	92.193				
512	93.398				
513	94.444				
514	94.7				
515	93.948				
516	92.459				
517	91.731				
518	91.896				
519	92.639				
520	93.287				
521	93.306				
522	92.433				
523	91.584				
524	91.026				
525	91.404				
526	92.477				
527	93.811				
528	94.86				
529	94.934				
530	94.4				
531	93.539				
532	93.304				
533	93.669				
534	94.429				
535	95.376				
536	95.822				
537	95.422				
538	94.52				
539	93.635				
540	93.105				
541	93.025				
542	93.121				
543	93.245				
544	93.326				
545	93.423				
546	93.691				
547	94.154				
548	94.493				
549	94.678				
550	94.47				
551	93.942				
552	93.276				
553	92.777				
554	92.75				
555	93.25				
556	94.149				
557	94.606				
558	94.328				
559	93.098				
560	91.246				
561	89.456				
562	88.497				
563	88.747				
564	89.866				
565	91.784				
566	93.45				
567	94.612				
568	94.665				
569	93.447				
570	92.067				
571	91.301				
572	91.102				
573	90.95				
574	90.098				
575	88.136				
576	85.756				
577	83.97				
578	84.828				
579	89.132				
580	92.556				
581	85.833				
582	64.28				
583	40.331				
584	24.08				
585	14.508				
586	9.318				
587	6.449				
588	4.864				
589	3.802				
590	3.135				
591	2.733				
592	2.48				
593	2.37				
594	2.341				
595	2.437				
596	2.632				
597	2.952				
598	3.439				
599	4.153				
600	5.143				
601	6.822				
602	9.381				
603	12.899				
604	17.838				
605	24.476				
606	32.725				
607	41.592				
608	50.181				
609	58.953				
610	69.718				
611	82.129				
612	91.829				
613	95.698				
614	95.586				
615	94.732				
616	94.722				
617	95.317				
618	95.732				
619	95.721				
620	95.208				
621	94.513				
622	93.769				
623	93.518				
624	93.479				
625	93.824				
626	94.209				
627	94.661				
628	95.085				
629	95.399				
630	95.516				
631	95.482				
632	95.568				
633	95.959				
634	96.202				
635	96.573				
636	96.805				
637	96.857				
638	96.723				
639	96.747				
640	96.427				
641	96.102				
642	95.838				
643	95.699				
644	95.638				
645	95.833				
646	96.031				
647	96.182				
648	96.13				
649	96.211				
650	96.15				
651	95.792				
652	95.31				
653	94.537				
654	93.527				
655	92.953				
656	93.067				
657	93.79				
658	94.649				
659	94.138				
660	89.46				
661	79.04				
662	63.918				
663	47.985				
664	34.397				
665	24.333				
666	16.927				
667	12.274				
668	9.137				
669	6.947				
670	5.466				
671	4.367				
672	3.64				
673	3.112				
674	2.713				
675	2.438				
676	2.249				
677	2.112				
678	2.023				
679	1.988				
680	1.983				
681	2.024				
682	2.122				
683	2.259				
684	2.455				
685	2.72				
686	3.098				
687	3.585				
688	4.229				
689	5.168				
690	6.395				
691	8.019				
692	10.506				
693	13.649				
694	17.847				
695	23.599				
696	29.859				
697	36.582				
698	43.19				
699	48.472				
700	52.726				
701	56.912				
702	61.673				
703	68.38				
704	77.818				
705	87.121				
706	93.927				
707	96.723				
708	96.77				
709	96.172				
710	95.62				
711	95.471				
712	95.386				
713	95.39				
714	95.32				
715	94.805				
716	93.91				
717	92.937				
718	92.014				
719	91.484				
720	91.221				
721	91.431				
722	91.906				
723	92.776				
724	93.747				
725	94.845				
726	95.827				
727	96.645				
728	97.048				
729	97.098				
730	97.063				
731	96.724				
732	95.882				
733	95.332				
734	94.971				
735	94.835				
736	94.824				
737	94.85				
738	95.285				
739	95.821				
740	96.259				
741	96.776				
742	97.023				
743	97.006				
744	96.931				
745	96.781				
746	96.397				
747	95.899				
748	95.515				
749	95.321				
750	95.096				
751	95.134				
752	95.367				
753	95.631				
754	95.95				
755	96.268				
756	96.311				
757	96.419				
758	96.378				
759	95.932				
760	95.579				
761	95.073				
762	94.486				
763	93.838				
764	93.209				
765	92.717				
766	92.368				
767	92.11				
768	92.236				
769	92.508				
770	92.761				
771	93.345				
772	93.836				
773	94.534				
774	95.259				
775	95.766				
776	96.114				
777	96.311				
778	96.434				
779	96.641				
780	96.426				
781	96.25				
782	96.006				
783	95.753				
784	95.523				
785	95.456				
786	95.334				
787	95.274				
788	95.275				
789	95.404				
790	95.653				
791	95.923				
792	96.132				
793	96.159				
794	96.304				
795	96.349				
796	95.937				
797	95.442				
798	95.134				
799	94.754				
800	94.555				
801	94.243				
802	94.069				
803	94.005				
804	93.967				
805	94.081				
806	94.061				
807	94.368				
808	94.717				
809	94.934				
810	95.248				
811	95.498				
812	95.616				
813	95.741				
814	95.879				
815	95.824				
816	95.593				
817	95.395				
818	95.17				
819	94.841				
820	94.58				
821	94.379				
822	94.242				
823	93.87				
824	93.887				
825	93.843				
826	93.95				
827	94.03				
828	94.249				
829	94.409				
830	94.586				
831	94.811				
832	95.034				
833	95.177				
834	95.216				
835	95.187				
836	95.103				
837	95.097				
838	95.119				
839	95.038				
840	94.751				
841	94.562				
842	94.576				
843	94.52				
844	94.417				
845	94.345				
846	94.383				
847	94.546				
848	94.713				
849	95.034				
850	95.219				
851	95.429				
852	95.606				
853	95.633				
854	95.859				
855	95.805				
856	95.81				
857	95.773				
858	95.606				
859	95.486				
860	95.257				
861	95.043				
862	94.911				
863	94.856				
864	94.639				
865	94.413				
866	94.417				
867	94.346				
868	94.497				
869	94.624				
870	94.811				
871	95.042				
872	95.3				
873	95.502				
874	95.661				
875	95.884				
876	96.029				
877	96.144				
878	96.18				
879	96.233				
880	96.229				
881	96.137				
882	95.994				
883	95.766				
884	95.692				
885	95.757				
886	95.552				
887	95.415				
888	95.373				
889	95.091				
890	94.916				
891	94.775				
892	94.662				
893	94.545				
894	94.302				
895	93.992				
896	93.777				
897	93.45				
898	93.188				
899	93.116				
900	93.031				
