Wavelength	Transmittance	hex_color	Manufacturer	Name	Filter Number
300	0.0		Chroma		ZET488/640m
301	0.0				
302	0.0				
303	0.0				
304	0.0				
305	0.0				
306	0.0				
307	0.0				
308	0.0				
309	0.0				
310	0.0				
311	0.0				
312	0.0				
313	0.0				
314	0.0				
315	0.0				
316	0.0				
317	0.0				
318	0.0				
319	0.0				
320	0.0				
321	0.0				
322	0.0				
323	0.0				
324	0.0				
325	0.0				
326	0.0				
327	0.0				
328	0.0				
329	0.0				
330	0.0				
331	0.0				
332	0.0				
333	0.0				
334	0.0				
335	0.0				
336	0.0				
337	0.0				
338	0.0				
339	0.0				
340	0.0				
341	0.0				
342	0.0				
343	0.0				
344	0.0				
345	0.0				
346	0.0				
347	0.0				
348	0.0				
349	0.0				
350	0.0				
351	0.0				
352	0.0				
353	0.0				
354	0.0				
355	0.0				
356	0.0				
357	0.0				
358	0.0				
359	0.0				
360	0.0				
361	0.0				
362	0.0				
363	0.0				
364	0.0				
365	0.0				
366	0.0				
367	0.0				
368	0.0				
369	0.0				
370	0.0				
371	0.0				
372	0.0				
373	0.0				
374	0.0				
375	0.0				
376	0.0				
377	0.0				
378	0.0				
379	0.0				
380	0.0				
381	0.0				
382	0.0				
383	0.0				
384	0.0				
385	0.0				
386	0.0				
387	0.0				
388	0.0				
389	0.0				
390	0.0				
391	0.0				
392	0.0				
393	0.0				
394	0.0				
395	0.0				
396	0.0				
397	0.0				
398	0.0				
399	0.0				
400	0.0				
401	0.0				
402	0.0				
403	0.0				
404	0.0				
405	0.0				
406	0.0				
407	0.0				
408	0.0				
409	0.0				
410	0.0				
411	0.0				
412	0.0				
413	0.0				
414	0.0				
415	0.0				
416	0.0				
417	0.0				
418	0.0				
419	0.0				
420	0.0				
421	0.0				
422	0.0				
423	0.0				
424	0.0				
425	0.0				
426	0.0				
427	0.0				
428	0.0				
429	0.0				
430	0.0				
431	0.0				
432	0.0				
433	0.0				
434	0.0				
435	0.0				
436	0.0				
437	0.0				
438	0.0				
439	0.0				
440	0.0				
441	0.0				
442	0.0				
443	0.0				
444	0.0				
445	0.0				
446	0.0				
447	0.0				
448	0.0				
449	0.0				
450	0.0				
451	0.0				
452	0.0				
453	0.0				
454	0.0				
455	0.0				
456	0.0				
457	0.0				
458	0.0				
459	0.0				
460	0.0				
461	0.0				
462	0.0				
463	0.0				
464	0.0				
465	0.0				
466	0.0				
467	0.0				
468	0.0				
469	0.0				
470	0.0				
471	0.0				
472	0.0				
473	0.0				
474	0.0				
475	0.0				
476	0.0				
477	0.0				
478	0.0				
479	0.0				
480	0.0				
481	0.0				
482	0.0				
483	0.0				
484	0.0				
485	0.0				
486	0.0				
487	0.0				
488	0.0				
489	0.0				
490	0.0				
491	0.0				
492	0.0				
493	0.0				
494	0.0				
495	0.0				
496	0.0				
497	0.0				
498	0.0				
499	0.003				
500	0.052				
501	16.896				
502	84.672				
503	97.23				
504	97.505				
505	95.087				
506	97.814				
507	97.955				
508	93.428				
509	94.709				
510	98.109				
511	98.296				
512	96.39				
513	97.048				
514	97.049				
515	95.568				
516	96.251				
517	94.308				
518	97.079				
519	96.675				
520	97.654				
521	95.077				
522	93.102				
523	94.57				
524	91.865				
525	92.765				
526	94.402				
527	95.794				
528	97.685				
529	97.3				
530	97.597				
531	92.839				
532	88.737				
533	93.731				
534	98.111				
535	98.178				
536	96.601				
537	93.985				
538	95.297				
539	96.186				
540	95.49				
541	97.392				
542	98.043				
543	97.263				
544	97.209				
545	94.736				
546	93.452				
547	95.673				
548	97.192				
549	96.248				
550	94.56				
551	93.925				
552	96.6				
553	98.468				
554	97.348				
555	97.428				
556	97.656				
557	96.382				
558	97.243				
559	98.188				
560	96.727				
561	94.694				
562	93.35				
563	93.954				
564	96.632				
565	97.292				
566	95.433				
567	96.744				
568	97.46				
569	93.969				
570	92.848				
571	96.439				
572	97.481				
573	95.429				
574	95.687				
575	97.066				
576	96.905				
577	97.138				
578	97.263				
579	95.286				
580	94.155				
581	96.247				
582	98.247				
583	96.579				
584	94.512				
585	95.455				
586	98.065				
587	97.636				
588	93.891				
589	92.333				
590	95.14				
591	98.305				
592	98.13				
593	97.33				
594	97.185				
595	96.676				
596	96.763				
597	96.621				
598	95.565				
599	94.742				
600	96.703				
601	98.53				
602	96.729				
603	95.407				
604	96.351				
605	96.419				
606	96.105				
607	96.862				
608	95.766				
609	93.182				
610	94.233				
611	96.609				
612	94.657				
613	93.389				
614	96.222				
615	97.878				
616	97.717				
617	97.662				
618	96.08				
619	96.807				
620	96.15				
621	93.583				
622	84.806				
623	23.182				
624	0.633				
625	0.032				
626	0.003				
627	0.001				
628	0.0				
629	0.0				
630	0.0				
631	0.0				
632	0.0				
633	0.0				
634	0.0				
635	0.0				
636	0.0				
637	0.0				
638	0.0				
639	0.0				
640	0.0				
641	0.0				
642	0.0				
643	0.0				
644	0.0				
645	0.0				
646	0.0				
647	0.0				
648	0.0				
649	0.0				
650	0.0				
651	0.0				
652	0.002				
653	0.011				
654	0.137				
655	4.372				
656	55.428				
657	95.445				
658	90.62				
659	93.677				
660	95.373				
661	90.004				
662	94.709				
663	96.443				
664	90.315				
665	90.718				
666	96.584				
667	97.564				
668	95.514				
669	96.73				
670	97.312				
671	94.318				
672	92.928				
673	95.951				
674	97.444				
675	93.249				
676	89.102				
677	90.541				
678	95.673				
679	97.479				
680	95.032				
681	93.139				
682	95.006				
683	97.916				
684	97.851				
685	96.481				
686	97.221				
687	98.306				
688	96.71				
689	92.989				
690	91.072				
691	92.983				
692	96.411				
693	96.51				
694	93.63				
695	91.875				
696	93.609				
697	96.839				
698	97.51				
699	94.866				
700	91.95				
701	92.195				
702	95.275				
703	98.237				
704	98.902				
705	97.956				
706	97.625				
707	98.452				
708	98.798				
709	97.893				
710	96.32				
711	95.202				
712	95.093				
713	95.403				
714	95.928				
715	96.53				
716	97.471				
717	98.063				
718	98.632				
719	97.991				
720	97.28				
721	96.837				
722	96.642				
723	96.392				
724	95.285				
725	94.437				
726	94.573				
727	95.13				
728	96.482				
729	97.641				
730	97.667				
731	97.407				
732	96.747				
733	96.096				
734	96.324				
735	96.791				
736	97.64				
737	98.255				
738	98.546				
739	98.553				
740	98.479				
741	98.097				
742	97.968				
743	98.389				
744	98.81				
745	98.647				
746	97.783				
747	96.671				
748	96.681				
749	97.91				
750	96.756				
751	85.418				
752	63.437				
753	41.987				
754	27.271				
755	18.276				
756	12.555				
757	8.599				
758	5.745				
759	3.911				
760	2.784				
761	2.18				
762	1.922				
763	1.941				
764	2.311				
765	3.283				
766	5.3				
767	6.998				
768	5.111				
769	2.451				
770	1.193				
771	0.646				
772	0.396				
773	0.273				
774	0.211				
775	0.187				
776	0.198				
777	0.266				
778	0.547				
779	5.401				
780	18.324				
781	1.596				
782	0.309				
783	0.167				
784	0.139				
785	0.18				
786	0.603				
787	3.037				
788	0.834				
789	0.079				
790	0.027				
791	0.013				
792	0.008				
793	0.007				
794	0.005				
795	0.005				
796	0.005				
797	0.007				
798	0.009				
799	0.013				
800	0.191				
801	0.261				
802	0.33				
803	0.398				
804	0.466				
805	0.53				
806	0.593				
807	0.654				
808	0.689				
809	0.645				
810	0.58				
811	0.517				
812	0.461				
813	0.449				
814	0.638				
815	1.079				
816	1.748				
817	2.544				
818	3.028				
819	3.535				
820	4.409				
821	5.982				
822	9.11				
823	15.038				
824	23.343				
825	32.321				
826	38.767				
827	34.429				
828	23.544				
829	15.877				
830	11.053				
831	8.032				
832	6.167				
833	4.767				
834	3.905				
835	3.286				
836	2.447				
837	1.595				
838	1.29				
839	1.185				
840	1.093				
841	0.991				
842	0.882				
843	0.768				
844	0.662				
845	0.578				
846	0.519				
847	0.48				
848	0.457				
849	0.452				
850	0.465				
851	0.494				
852	0.535				
853	0.586				
854	0.646				
855	0.714				
856	0.778				
857	0.842				
858	0.909				
859	0.977				
860	1.049				
861	1.125				
862	1.205				
863	1.284				
864	1.361				
865	1.399				
866	1.378				
867	1.342				
868	1.32				
869	1.379				
870	1.611				
871	1.563				
872	1.581				
873	1.972				
874	2.985				
875	5.985				
876	13.192				
877	21.228				
878	17.511				
879	10.83				
880	6.878				
881	4.518				
882	3.318				
883	2.102				
884	0.782				
885	0.248				
886	0.29				
887	0.327				
888	0.506				
889	1.088				
890	3.274				
891	10.138				
892	19.651				
893	16.797				
894	9.5				
895	3.505				
896	3.935				
897	8.531				
898	32.356				
899	65.259				
900	44.597				
901	34.49				
902	28.253				
903	17.025				
904	9.275				
905	5.282				
906	3.363				
907	2.509				
908	2.687				
909	2.669				
910	2.086				
911	1.532				
912	0.992				
913	0.466				
914	0.047				
915	0.005				
916	0.002				
917	0.001				
918	0.001				
919	0.0				
920	0.0				
921	0.0				
922	0.0				
923	0.0				
924	0.0				
925	0.0				
926	0.0				
927	0.0				
928	0.0				
929	0.0				
930	0.0				
931	0.0				
932	0.0				
933	0.0				
934	0.0				
935	0.0				
936	0.0				
937	0.0				
938	0.0				
939	0.0				
940	0.0				
941	0.0				
942	0.0				
943	0.0				
944	0.0				
945	0.0				
946	0.0				
947	0.0				
948	0.0				
949	0.0				
950	0.0				
951	0.0				
952	0.0				
953	0.0				
954	0.0				
955	0.0				
956	0.0				
957	0.0				
958	0.0				
959	0.0				
960	0.0				
961	0.0				
962	0.0				
963	0.0				
964	0.001				
965	0.001				
966	0.002				
967	0.003				
968	0.009				
969	0.143				
970	0.733				
971	1.351				
972	1.756				
973	1.208				
974	0.586				
975	0.067				
976	0.036				
977	0.035				
978	0.04				
979	0.05				
980	0.07				
981	0.112				
982	0.204				
983	0.448				
984	1.295				
985	6.192				
986	46.216				
987	44.467				
988	16.335				
989	13.654				
990	19.965				
991	47.167				
992	81.469				
993	43.153				
994	16.728				
995	9.024				
996	6.048				
997	4.638				
998	3.866				
999	3.348				
1000	2.935				
1001	2.585				
1002	2.287				
1003	2.037				
1004	1.834				
1005	1.703				
1006	1.629				
1007	1.62				
1008	1.663				
1009	1.771				
1010	1.933				
1011	2.195				
1012	2.632				
1013	3.39				
1014	4.757				
1015	7.566				
1016	14.28				
1017	35.469				
1018	72.742				
1019	50.242				
1020	19.865				
1021	9.579				
1022	5.641				
1023	3.811				
1024	2.89				
1025	2.367				
1026	2.046				
1027	1.865				
1028	1.798				
1029	1.819				
1030	1.919				
1031	2.105				
1032	2.411				
1033	2.926				
1034	3.711				
1035	4.987				
1036	7.119				
1037	10.151				
1038	13.496				
1039	14.872				
1040	13.321				
1041	10.685				
1042	8.499				
1043	7.096				
1044	6.314				
1045	6.044				
1046	6.25				
1047	7.02				
1048	8.717				
1049	12.219				
1050	19.463				
1051	36.604				
1052	72.995				
1053	89.361				
1054	55.29				
1055	30.343				
1056	19.421				
1057	14.615				
1058	12.633				
1059	12.354				
1060	13.665				
1061	17.157				
1062	24.817				
1063	39.957				
1064	59.366				
1065	55.344				
1066	33.907				
1067	19.714				
1068	12.863				
1069	9.632				
1070	8.145				
1071	7.789				
1072	8.469				
1073	10.635				
1074	16.335				
1075	32.646				
1076	57.693				
1077	41.456				
1078	16.313				
1079	7.197				
1080	3.87				
1081	2.345				
1082	1.566				
1083	1.134				
1084	0.888				
1085	0.74				
1086	0.651				
1087	0.599				
1088	0.578				
1089	0.582				
1090	0.609				
1091	0.666				
1092	0.758				
1093	0.903				
1094	1.121				
1095	1.44				
1096	1.936				
1097	2.769				
1098	4.237				
1099	6.81				
1100	10.808				
