Wavelength	Transmittance	hex_color	Manufacturer	Name	Filter Number
300	0.0		Chroma		ET542lp
301	0.0				
302	0.0				
303	0.0				
304	0.0				
305	0.0				
306	0.0				
307	0.0				
308	0.0				
309	0.0				
310	0.0				
311	0.0				
312	0.0				
313	0.0				
314	0.0				
315	0.0				
316	0.0				
317	0.0				
318	0.0				
319	0.0				
320	0.0				
321	0.0				
322	0.0				
323	0.0				
324	0.0				
325	0.0				
326	0.0				
327	0.0				
328	0.0				
329	0.0				
330	0.0				
331	0.0				
332	0.0				
333	0.0				
334	0.0				
335	0.0				
336	0.0				
337	0.0				
338	0.0				
339	0.0				
340	0.0				
341	0.0				
342	0.0				
343	0.0				
344	0.0				
345	0.0				
346	0.0				
347	0.0				
348	0.0				
349	0.0				
350	0.0				
351	0.0				
352	0.0				
353	0.0				
354	0.0				
355	0.0				
356	0.0				
357	0.0				
358	0.0				
359	0.0				
360	0.0				
361	0.0				
362	0.0				
363	0.0				
364	0.0				
365	0.0				
366	0.0				
367	0.0				
368	0.0				
369	0.0				
370	0.0				
371	0.0				
372	0.0				
373	0.0				
374	0.0				
375	0.0				
376	0.0				
377	0.0				
378	0.0				
379	0.0				
380	0.0				
381	0.0				
382	0.0				
383	0.0				
384	0.0				
385	0.0				
386	0.0				
387	0.0				
388	0.0				
389	0.0				
390	0.0				
391	0.0				
392	0.0				
393	0.0				
394	0.0				
395	0.0				
396	0.0				
397	0.0				
398	0.0				
399	0.0				
400	0.0				
401	0.0				
402	0.0				
403	0.0				
404	0.001				
405	0.0				
406	0.0				
407	0.0				
408	0.0				
409	0.0				
410	0.0				
411	0.0				
412	0.0				
413	0.0				
414	0.0				
415	0.0				
416	0.0				
417	0.0				
418	0.0				
419	0.0				
420	0.0				
421	0.0				
422	0.0				
423	0.0				
424	0.0				
425	0.0				
426	0.0				
427	0.0				
428	0.0				
429	0.0				
430	0.0				
431	0.0				
432	0.0				
433	0.0				
434	0.0				
435	0.0				
436	0.0				
437	0.0				
438	0.0				
439	0.0				
440	0.0				
441	0.0				
442	0.0				
443	0.0				
444	0.0				
445	0.0				
446	0.0				
447	0.0				
448	0.0				
449	0.0				
450	0.0				
451	0.0				
452	0.0				
453	0.0				
454	0.0				
455	0.0				
456	0.0				
457	0.0				
458	0.0				
459	0.0				
460	0.0				
461	0.0				
462	0.0				
463	0.0				
464	0.0				
465	0.0				
466	0.0				
467	0.0				
468	0.0				
469	0.0				
470	0.0				
471	0.0				
472	0.0				
473	0.0				
474	0.0				
475	0.0				
476	0.0				
477	0.0				
478	0.0				
479	0.0				
480	0.0				
481	0.0				
482	0.0				
483	0.0				
484	0.0				
485	0.0				
486	0.0				
487	0.0				
488	0.0				
489	0.0				
490	0.0				
491	0.0				
492	0.0				
493	0.0				
494	0.0				
495	0.0				
496	0.0				
497	0.0				
498	0.0				
499	0.0				
500	0.0				
501	0.0				
502	0.0				
503	0.0				
504	0.0				
505	0.0				
506	0.0				
507	0.0				
508	0.0				
509	0.0				
510	0.0				
511	0.0				
512	0.0				
513	0.0				
514	0.0				
515	0.0				
516	0.0				
517	0.0				
518	0.0				
519	0.0				
520	0.0				
521	0.0				
522	0.0				
523	0.0				
524	0.0				
525	0.0				
526	0.0				
527	0.0				
528	0.0				
529	0.0				
530	0.0				
531	0.0				
532	0.0				
533	0.0				
534	0.0				
535	0.0				
536	0.0				
537	0.0				
538	0.002				
539	0.016				
540	0.164				
541	2.714				
542	35.658				
543	90.651				
544	96.782				
545	98.542				
546	98.662				
547	98.723				
548	98.944				
549	98.758				
550	98.794				
551	98.558				
552	98.682				
553	98.855				
554	98.84				
555	98.951				
556	98.867				
557	98.881				
558	99.101				
559	98.891				
560	99.007				
561	98.913				
562	98.901				
563	99.107				
564	98.966				
565	99.187				
566	98.927				
567	98.691				
568	98.51				
569	98.622				
570	98.377				
571	98.807				
572	99.045				
573	98.945				
574	98.861				
575	98.916				
576	98.569				
577	98.422				
578	98.419				
579	98.541				
580	98.664				
581	99.018				
582	99.277				
583	99.21				
584	99.084				
585	99.016				
586	98.691				
587	98.57				
588	98.351				
589	98.521				
590	98.394				
591	98.545				
592	98.631				
593	98.76				
594	98.83				
595	98.839				
596	98.713				
597	98.894				
598	98.855				
599	98.836				
600	98.961				
601	98.87				
602	98.957				
603	98.706				
604	99.037				
605	98.862				
606	98.711				
607	98.528				
608	98.536				
609	98.344				
610	98.083				
611	98.135				
612	97.917				
613	97.835				
614	97.86				
615	97.779				
616	97.823				
617	98.032				
618	98.15				
619	98.276				
620	98.248				
621	98.498				
622	98.568				
623	98.531				
624	98.769				
625	98.764				
626	98.906				
627	98.811				
628	98.643				
629	98.734				
630	98.584				
631	98.357				
632	98.165				
633	98.18				
634	98.034				
635	98.181				
636	98.158				
637	98.23				
638	98.291				
639	98.434				
640	98.482				
641	98.321				
642	98.408				
643	98.334				
644	98.082				
645	98.122				
646	97.974				
647	97.817				
648	97.796				
649	97.885				
650	97.781				
651	98.079				
652	98.44				
653	98.407				
654	98.553				
655	98.606				
656	98.547				
657	98.51				
658	98.565				
659	98.225				
660	98.159				
661	97.862				
662	97.88				
663	97.913				
664	98.04				
665	98.177				
666	98.312				
667	98.475				
668	98.764				
669	98.968				
670	99.178				
671	99.095				
672	99.072				
673	99.032				
674	98.733				
675	98.568				
676	98.415				
677	98.329				
678	98.01				
679	98.22				
680	98.174				
681	98.076				
682	98.233				
683	98.549				
684	98.731				
685	98.808				
686	99.061				
687	98.782				
688	98.977				
689	98.957				
690	98.909				
691	98.683				
692	98.567				
693	98.575				
694	98.338				
695	98.452				
696	98.602				
697	98.364				
698	98.635				
699	98.883				
700	98.768				
701	98.903				
702	99.066				
703	98.822				
704	98.937				
705	98.659				
706	98.882				
707	98.543				
708	98.149				
709	98.323				
710	98.292				
711	98.046				
712	98.083				
713	98.171				
714	98.089				
715	98.232				
716	98.261				
717	98.357				
718	98.408				
719	98.356				
720	98.43				
721	98.32				
722	98.2				
723	97.608				
724	97.563				
725	97.571				
726	97.432				
727	97.229				
728	97.203				
729	96.906				
730	97.526				
731	97.027				
732	97.188				
733	97.291				
734	97.446				
735	97.506				
736	97.48				
737	97.127				
738	97.602				
739	97.461				
740	96.956				
741	97.171				
742	97.175				
743	96.43				
744	96.257				
745	96.219				
746	96.351				
747	96.115				
748	96.137				
749	96.232				
750	96.898				
751	97.047				
752	97.076				
753	97.459				
754	97.519				
755	97.903				
756	97.78				
757	97.525				
758	97.403				
759	96.876				
760	96.685				
761	95.84				
762	95.111				
763	94.712				
764	94.304				
765	94.074				
766	93.484				
767	93.186				
768	92.963				
769	93.01				
770	93.191				
771	94.005				
772	94.222				
773	94.957				
774	95.243				
775	96.319				
776	96.997				
777	97.704				
778	97.905				
779	98.541				
780	98.728				
781	98.252				
782	98.667				
783	98.16				
784	97.321				
785	96.418				
786	95.773				
787	94.882				
788	93.807				
789	92.772				
790	92.791				
791	91.753				
792	91.533				
793	91.339				
794	91.959				
795	91.98				
796	92.382				
797	92.322				
798	93.541				
799	94.035				
800	96.214				
801	95.338				
802	96.467				
803	97.984				
804	98.232				
805	98.605				
806	97.571				
807	99.266				
808	98.368				
809	97.929				
810	96.968				
811	96.381				
812	96.357				
813	95.126				
814	94.659				
815	93.708				
816	93.349				
817	93.76				
818	92.152				
819	92.293				
820	92.799				
821	91.948				
822	93.074				
823	93.381				
824	93.842				
825	93.167				
826	94.187				
827	95.999				
828	96.645				
829	95.823				
830	96.341				
831	97.291				
832	96.594				
833	96.537				
834	97.211				
835	97.245				
836	96.544				
837	95.951				
838	95.38				
839	95.15				
840	94.16				
841	93.006				
842	93.817				
843	93.512				
844	93.521				
845	92.593				
846	92.582				
847	91.861				
848	92.704				
849	92.861				
850	93.106				
851	92.289				
852	93.445				
853	94.605				
854	94.222				
855	95.18				
856	94.997				
857	95.309				
858	96.037				
859	96.267				
860	96.17				
861	95.362				
862	96.758				
863	95.787				
864	95.617				
865	95.336				
866	95.909				
867	95.55				
868	94.939				
869	93.781				
870	94.263				
871	94.089				
872	93.889				
873	93.603				
874	92.398				
875	92.415				
876	92.771				
877	92.799				
878	93.16				
879	93.14				
880	92.381				
881	92.356				
882	92.81				
883	92.445				
884	93.95				
885	92.865				
886	92.284				
887	92.615				
888	92.998				
889	92.888				
890	92.093				
891	92.898				
892	93.34				
893	93.055				
894	92.649				
895	92.748				
896	91.577				
897	92.926				
898	92.549				
899	92.759				
900	93.06				
901	93.91				
902	93.519				
903	93.716				
904	94.418				
905	94.051				
906	95.045				
907	95.478				
908	94.746				
909	95.244				
910	95.176				
911	95.665				
912	95.289				
913	95.976				
914	96.206				
915	94.172				
916	94.586				
917	93.932				
918	93.643				
919	91.95				
920	92.97				
921	92.092				
922	90.24				
923	90.766				
924	89.765				
925	89.92				
926	89.087				
927	88.48				
928	88.031				
929	87.64				
930	87.588				
931	88.321				
932	87.708				
933	87.857				
934	88.873				
935	89.57				
936	90.181				
937	89.996				
938	91.3				
939	90.742				
940	92.538				
941	93.474				
942	93.38				
943	94.478				
944	95.422				
945	96.378				
946	96.79				
947	97.27				
948	97.765				
949	98.132				
950	98.14				
951	98.648				
952	98.277				
953	97.792				
954	97.123				
955	96.989				
956	95.994				
957	95.326				
958	94.813				
959	92.959				
960	92.266				
961	92.13				
962	90.99				
963	90.346				
964	91.116				
965	90.379				
966	88.551				
967	89.552				
968	88.277				
969	88.149				
970	89.439				
971	88.396				
972	89.155				
973	89.064				
974	88.602				
975	90.074				
976	90.794				
977	90.843				
978	91.113				
979	91.907				
980	93.051				
981	94.47				
982	94.882				
983	93.666				
984	94.902				
985	95.974				
986	96.464				
987	96.87				
988	95.601				
989	96.605				
990	96.867				
991	95.978				
992	95.632				
993	96.737				
994	95.687				
995	93.996				
996	94.702				
997	93.766				
998	93.594				
999	92.68				
1000	92.174				
