Wavelength	Transmittance	hex_color	Manufacturer	Name	Filter Number
300	0.0		Chroma		ZET442/514m
301	0.0				
302	0.0				
303	0.0				
304	0.0				
305	0.0				
306	0.0				
307	0.0				
308	0.0				
309	0.0				
310	0.0				
311	0.0				
312	0.0				
313	0.0				
314	0.0				
315	0.0				
316	0.0				
317	0.0				
318	0.0				
319	0.0				
320	0.0				
321	0.0				
322	0.0				
323	0.0				
324	0.0				
325	0.0				
326	0.0				
327	0.0				
328	0.0				
329	0.0				
330	0.0				
331	0.0				
332	0.0				
333	0.0				
334	0.0				
335	0.0				
336	0.0				
337	0.0				
338	0.0				
339	0.0				
340	0.0				
341	0.0				
342	0.0				
343	0.0				
344	0.0				
345	0.0				
346	0.0				
347	0.0				
348	0.0				
349	0.0				
350	0.0				
351	0.0				
352	0.0				
353	0.0				
354	0.0				
355	0.0				
356	0.0				
357	0.0				
358	0.0				
359	0.0				
360	0.0				
361	0.0				
362	0.0				
363	0.0				
364	0.0				
365	0.0				
366	0.0				
367	0.0				
368	0.0				
369	0.0				
370	0.0				
371	0.0				
372	0.0				
373	0.0				
374	0.0				
375	0.0				
376	0.0				
377	0.0				
378	0.0				
379	0.0				
380	0.0				
381	0.0				
382	0.0				
383	0.0				
384	0.0				
385	0.0				
386	0.0				
387	0.0				
388	0.0				
389	0.0				
390	0.0				
391	0.0				
392	0.0				
393	0.0				
394	0.0				
395	0.0				
396	0.0				
397	0.0				
398	0.0				
399	0.0				
400	0.0				
401	0.0				
402	0.0				
403	0.0				
404	0.0				
405	0.0				
406	0.0				
407	0.0				
408	0.0				
409	0.0				
410	0.0				
411	0.0				
412	0.0				
413	0.0				
414	0.0				
415	0.0				
416	0.0				
417	0.0				
418	0.0				
419	0.0				
420	0.0				
421	0.0				
422	0.0				
423	0.0				
424	0.0				
425	0.0				
426	0.0				
427	0.0				
428	0.0				
429	0.0				
430	0.0				
431	0.0				
432	0.0				
433	0.0				
434	0.0				
435	0.0				
436	0.0				
437	0.0				
438	0.0				
439	0.0				
440	0.0				
441	0.0				
442	0.0				
443	0.0				
444	0.0				
445	0.0				
446	0.0				
447	0.0				
448	0.0				
449	0.0				
450	0.0				
451	0.0				
452	0.0				
453	0.0				
454	0.0				
455	0.001				
456	0.015				
457	0.437				
458	17.499				
459	79.763				
460	97.242				
461	98.398				
462	98.528				
463	98.711				
464	98.572				
465	98.391				
466	98.667				
467	98.896				
468	98.57				
469	98.423				
470	98.754				
471	98.515				
472	98.466				
473	98.239				
474	97.591				
475	98.082				
476	98.914				
477	98.954				
478	98.869				
479	98.978				
480	98.753				
481	97.851				
482	96.506				
483	96.733				
484	97.495				
485	98.171				
486	98.639				
487	98.403				
488	98.145				
489	98.646				
490	99.036				
491	98.353				
492	94.997				
493	92.036				
494	93.524				
495	94.774				
496	95.476				
497	97.318				
498	97.887				
499	51.326				
500	4.305				
501	0.411				
502	0.026				
503	0.003				
504	0.001				
505	0.0				
506	0.0				
507	0.0				
508	0.0				
509	0.0				
510	0.0				
511	0.0				
512	0.0				
513	0.0				
514	0.0				
515	0.0				
516	0.0				
517	0.0				
518	0.0				
519	0.0				
520	0.0				
521	0.0				
522	0.0				
523	0.001				
524	0.005				
525	0.035				
526	0.383				
527	8.853				
528	64.64				
529	94.369				
530	97.635				
531	98.186				
532	96.494				
533	95.34				
534	96.709				
535	98.336				
536	98.949				
537	99.085				
538	98.987				
539	98.64				
540	97.925				
541	97.728				
542	98.089				
543	98.741				
544	99.107				
545	99.274				
546	99.016				
547	98.98				
548	98.602				
549	97.823				
550	98.105				
551	98.589				
552	98.681				
553	98.713				
554	98.473				
555	98.376				
556	98.229				
557	97.694				
558	97.876				
559	98.318				
560	99.065				
561	99.058				
562	98.463				
563	97.823				
564	97.606				
565	98.038				
566	98.08				
567	98.168				
568	98.487				
569	98.037				
570	97.617				
571	97.436				
572	97.105				
573	97.694				
574	98.316				
575	98.385				
576	98.221				
577	98.626				
578	98.847				
579	98.9				
580	98.559				
581	98.086				
582	98.187				
583	98.539				
584	99.115				
585	98.981				
586	99.059				
587	98.567				
588	98.157				
589	97.915				
590	97.702				
591	97.893				
592	98.326				
593	98.89				
594	99.0				
595	98.798				
596	98.39				
597	98.389				
598	98.625				
599	98.658				
600	98.772				
601	98.488				
602	98.522				
603	98.005				
604	97.528				
605	96.978				
606	96.639				
607	96.626				
608	96.761				
609	98.151				
610	97.864				
611	86.9				
612	62.77				
613	37.428				
614	20.611				
615	11.277				
616	6.228				
617	3.521				
618	1.992				
619	1.091				
620	0.569				
621	0.282				
622	0.14				
623	0.072				
624	0.039				
625	0.023				
626	0.015				
627	0.011				
628	0.009				
629	0.008				
630	0.009				
631	0.011				
632	0.017				
633	0.039				
634	0.226				
635	0.487				
636	0.116				
637	0.031				
638	0.018				
639	0.015				
640	0.018				
641	0.035				
642	0.887				
643	4.21				
644	0.382				
645	0.021				
646	0.01				
647	0.006				
648	0.005				
649	0.004				
650	0.004				
651	0.004				
652	0.003				
653	0.002				
654	0.002				
655	0.002				
656	0.001				
657	0.002				
658	0.002				
659	0.003				
660	0.005				
661	0.017				
662	0.283				
663	0.335				
664	0.023				
665	0.007				
666	0.004				
667	0.004				
668	0.003				
669	0.004				
670	0.005				
671	0.007				
672	0.011				
673	0.022				
674	0.056				
675	0.205				
676	2.291				
677	30.595				
678	19.54				
679	13.599				
680	37.973				
681	3.649				
682	0.494				
683	0.134				
684	0.055				
685	0.029				
686	0.017				
687	0.012				
688	0.01				
689	0.009				
690	0.008				
691	0.01				
692	0.012				
693	0.015				
694	0.018				
695	0.017				
696	0.012				
697	0.009				
698	0.006				
699	0.005				
700	0.005				
701	0.005				
702	0.006				
703	0.008				
704	0.015				
705	0.044				
706	0.438				
707	0.809				
708	0.106				
709	0.03				
710	0.018				
711	0.014				
712	0.013				
713	0.016				
714	0.022				
715	0.039				
716	0.112				
717	1.12				
718	2.694				
719	0.415				
720	0.109				
721	0.065				
722	0.051				
723	0.047				
724	0.045				
725	0.044				
726	0.039				
727	0.034				
728	0.028				
729	0.024				
730	0.022				
731	0.022				
732	0.024				
733	0.028				
734	0.04				
735	0.067				
736	0.138				
737	0.301				
738	0.369				
739	0.215				
740	0.109				
741	0.069				
742	0.053				
743	0.046				
744	0.045				
745	0.051				
746	0.062				
747	0.085				
748	0.134				
749	0.255				
750	0.672				
751	4.862				
752	35.029				
753	3.925				
754	2.036				
755	1.088				
756	0.856				
757	0.831				
758	0.949				
759	1.226				
760	1.794				
761	2.989				
762	5.651				
763	12.115				
764	26.971				
765	49.431				
766	60.498				
767	53.122				
768	42.871				
769	34.556				
770	29.009				
771	25.683				
772	24.521				
773	25.426				
774	28.334				
775	32.783				
776	35.271				
777	32.87				
778	26.989				
779	21.441				
780	17.928				
781	16.6				
782	16.915				
783	18.251				
784	18.596				
785	15.635				
786	10.48				
787	6.344				
788	3.92				
789	2.566				
790	1.83				
791	1.398				
792	1.144				
793	0.991				
794	0.904				
795	0.869				
796	0.864				
797	0.891				
798	0.955				
799	1.033				
800	1.138				
801	1.256				
802	1.368				
803	1.471				
804	1.528				
805	1.541				
806	1.502				
807	1.427				
808	1.306				
809	1.196				
810	1.075				
811	0.979				
812	0.892				
813	0.843				
814	0.817				
815	0.821				
816	0.853				
817	0.927				
818	1.054				
819	1.268				
820	1.644				
821	2.294				
822	3.537				
823	6.405				
824	13.922				
825	34.012				
826	51.188				
827	34.0				
828	17.697				
829	11.231				
830	8.433				
831	7.468				
832	7.387				
833	8.411				
834	10.731				
835	15.997				
836	28.234				
837	56.505				
838	79.32				
839	51.972				
840	27.568				
841	15.44				
842	10.16				
843	7.603				
844	6.492				
845	5.847				
846	5.721				
847	6.061				
848	6.814				
849	8.29				
850	14.969				
851	20.162				
852	28.547				
853	39.127				
854	45.539				
855	42.188				
856	33.37				
857	24.816				
858	18.458				
859	13.896				
860	10.839				
861	8.817				
862	7.486				
863	6.768				
864	6.464				
865	6.505				
866	6.905				
867	7.672				
868	8.9				
869	10.746				
870	13.744				
871	18.864				
872	27.994				
873	42.599				
874	56.609				
875	55.835				
876	43.153				
877	30.482				
878	21.156				
879	15.556				
880	12.055				
881	9.854				
882	8.562				
883	7.868				
884	7.62				
885	7.725				
886	8.181				
887	8.971				
888	10.251				
889	12.087				
890	14.723				
891	18.794				
892	24.651				
893	33.287				
894	46.183				
895	61.922				
896	77.153				
897	86.619				
898	88.031				
899	84.451				
900	79.595				
901	75.69				
902	73.28				
903	72.268				
904	72.144				
905	72.728				
906	73.173				
907	73.338				
908	72.807				
909	71.753				
910	70.031				
911	67.905				
912	65.309				
913	62.178				
914	58.568				
915	54.426				
916	50.035				
917	45.387				
918	41.017				
919	37.125				
920	33.696				
921	30.993				
922	29.013				
923	27.611				
924	26.89				
925	26.855				
926	27.448				
927	28.816				
928	31.091				
929	34.334				
930	38.994				
931	44.82				
932	52.103				
933	60.19				
934	67.627				
935	72.876				
936	74.599				
937	72.527				
938	68.008				
939	62.692				
940	57.74				
941	53.486				
942	50.413				
943	48.386				
944	47.4				
945	47.169				
946	47.909				
947	49.228				
948	51.075				
949	53.508				
950	55.896				
951	58.071				
952	59.262				
953	59.212				
954	57.264				
955	53.576				
956	48.449				
957	42.495				
958	36.626				
959	31.145				
960	26.381				
961	22.561				
962	19.324				
963	16.861				
964	14.978				
965	13.458				
966	12.339				
967	11.567				
968	11.032				
969	10.769				
970	10.75				
971	10.972				
972	11.477				
973	12.307				
974	13.55				
975	15.428				
976	17.992				
977	21.8				
978	27.389				
979	35.242				
980	46.22				
981	60.902				
982	76.087				
983	86.299				
984	86.318				
985	77.282				
986	65.708				
987	55.323				
988	47.298				
989	41.723				
990	38.024				
991	35.834				
992	34.88				
993	35.001				
994	36.035				
995	38.099				
996	41.035				
997	45.044				
998	49.846				
999	55.588				
1000	61.895				
1001	68.415				
1002	74.433				
1003	79.548				
1004	83.508				
1005	86.043				
1006	87.177				
1007	86.784				
1008	84.365				
1009	80.032				
1010	73.007				
1011	64.413				
1012	54.627				
1013	45.209				
1014	36.683				
1015	29.666				
1016	24.032				
1017	19.587				
1018	16.255				
1019	13.733				
1020	11.744				
1021	10.269				
1022	9.133				
1023	8.269				
1024	7.637				
1025	7.159				
1026	6.848				
1027	6.65				
1028	6.58				
1029	6.618				
1030	6.774				
1031	7.048				
1032	7.438				
1033	8.035				
1034	8.783				
1035	9.744				
1036	11.058				
1037	12.631				
1038	14.586				
1039	16.908				
1040	19.533				
1041	22.181				
1042	24.447				
1043	26.002				
1044	26.522				
1045	25.979				
1046	24.68				
1047	22.944				
1048	21.189				
1049	19.471				
1050	18.003				
1051	16.851				
1052	15.881				
1053	15.186				
1054	14.723				
1055	14.418				
1056	14.31				
1057	14.377				
1058	14.564				
1059	14.945				
1060	15.458				
1061	16.043				
1062	16.77				
1063	17.565				
1064	18.324				
1065	19.113				
1066	19.767				
1067	20.133				
1068	20.277				
1069	20.142				
1070	19.585				
1071	18.784				
1072	17.803				
1073	16.63				
1074	15.424				
1075	14.278				
1076	13.157				
1077	12.16				
1078	11.283				
1079	10.501				
1080	9.832				
1081	9.286				
1082	8.832				
1083	8.435				
1084	8.153				
1085	7.947				
1086	7.8				
1087	7.7				
1088	7.702				
1089	7.767				
1090	7.846				
1091	8.034				
1092	8.298				
1093	8.631				
1094	9.054				
1095	9.57				
1096	10.241				
1097	11.02				
1098	11.958				
1099	13.085				
1100	14.499				
